Data from D3__Relative__1__00049.txt Node

Date: Tue Jan 30 17:55:27 CET 2024
User: diatiterra
Spectrometer: HDX00911
Trigger mode: 0
Integration Time (sec): 6,000000E-3
Scans to average: 3
Nonlinearity correction enabled: true
Boxcar width: 0
Storing dark spectrum: false
XAxis mode: Wavelengths
Number of Pixels in Spectrum: 2068
>>>>>Begin Spectral Data<<<<<
194,468	89,16
195,025	68,69
195,581	69,19
196,138	69,49
196,694	70,96
197,251	60,59
197,807	58,83
198,363	57,02
198,919	57,4
199,474	62,66
200,03	56,81
200,586	54,74
201,141	57,08
201,696	55,48
202,251	53,76
202,806	61,3
203,361	60,89
203,916	53,4
204,471	57,11
205,025	58,29
205,58	54,34
206,134	58,65
206,688	54,81
207,242	53,42
207,796	55,08
208,35	58,91
208,904	57,02
209,457	56,91
210,011	63,29
210,564	51,28
211,117	56,96
211,67	62,51
212,223	56,9
212,776	58,82
213,329	57,73
213,881	54,5
214,434	48,79
214,986	52,25
215,538	56,5
216,09	50,3
216,642	55,14
217,194	57,6
217,746	60,46
218,297	52,98
218,849	57,08
219,4	56,66
219,951	52,27
220,502	57,11
221,053	50,92
221,604	54,69
222,155	56,05
222,705	53,43
223,256	51,31
223,806	55,99
224,356	55,02
224,906	58,6
225,456	52,17
226,006	49,7
226,556	51,55
227,106	56,84
227,655	56,54
228,204	58,7
228,754	55,85
229,303	49,79
229,852	54,78
230,401	57,5
230,949	56,61
231,498	53,82
232,047	51,63
232,595	61,46
233,143	57,2
233,691	53,67
234,239	53,84
234,787	54,39
235,335	59,45
235,883	51,33
236,43	58,8
236,978	55,08
237,525	56,67
238,072	54,8
238,619	54,57
239,166	54,64
239,713	53,74
240,26	52,46
240,806	55,09
241,353	54,01
241,899	52,92
242,445	55,17
242,991	50,51
243,537	55,81
244,083	53,95
244,629	58,58
245,174	52,53
245,72	56,71
246,265	56,76
246,81	57,62
247,355	53,12
247,9	53,88
248,445	52,41
248,99	54,78
249,534	52,46
250,079	56,39
250,623	52,1
251,168	52,68
251,712	51,8
252,256	49,16
252,8	50,71
253,343	55,37
253,887	52,17
254,43	61,35
254,974	52,44
255,517	53,03
256,06	52,39
256,603	57,36
257,146	54,25
257,689	58,59
258,232	56,28
258,774	49,35
259,317	56,99
259,859	53,06
260,401	64,44
260,943	56,78
261,485	58,37
262,027	54
262,569	55,19
263,11	54
263,652	62,13
264,193	57,3
264,734	55,44
265,275	53,86
265,816	54,75
266,357	57,7
266,898	56,49
267,438	56,28
267,979	62,14
268,519	57,93
269,059	54,05
269,6	60,89
270,14	58,55
270,68	51
271,219	56,5
271,759	57,46
272,298	52,69
272,838	57,95
273,377	59,19
273,916	56,3
274,455	53,12
274,994	57,18
275,533	58
276,072	58,78
276,61	55,41
277,149	51,38
277,687	58,08
278,225	53,75
278,763	54,16
279,301	49,14
279,839	54,32
280,377	53,36
280,914	54,87
281,452	58,23
281,989	58,7
282,526	56,82
283,064	59,57
283,601	57,45
284,137	58,23
284,674	58,86
285,211	59,74
285,747	56,32
286,284	57,09
286,82	49,77
287,356	58,66
287,892	58,78
288,428	54,4
288,964	56,43
289,5	55,41
290,035	55,39
290,571	59,36
291,106	60,4
291,641	54,98
292,176	54,88
292,711	55,94
293,246	58,94
293,781	55,26
294,315	54,43
294,85	61,31
295,384	60,11
295,918	54,84
296,453	50,33
296,987	54,82
297,52	58,94
298,054	52,19
298,588	54,24
299,121	55,89
299,655	53,01
300,188	54,37
300,721	53,3
301,254	54,27
301,787	53,6
302,32	58,84
302,853	50,75
303,385	58,22
303,918	52,88
304,45	46,65
304,982	56,83
305,514	53,49
306,046	54,31
306,578	53,23
307,11	55,63
307,641	58,61
308,173	54,02
308,704	56,59
309,236	54,53
309,767	54,47
310,298	50,97
310,829	47,31
311,359	56,84
311,89	54,61
312,421	50,42
312,951	52,2
313,481	58,5
314,012	53,48
314,542	54,27
315,072	50,75
315,601	45,74
316,131	57,41
316,661	50,11
317,19	53,12
317,72	52,6
318,249	50,11
318,778	55,17
319,307	45,74
319,836	54,14
320,365	52,34
320,893	56,26
321,422	54,35
321,95	52,86
322,479	59,12
323,007	49,35
323,535	53,53
324,063	48
324,591	50
325,118	55
325,646	52,52
326,173	53,73
326,701	55,56
327,228	57,78
327,755	54,6
328,282	52,35
328,809	56,14
329,336	52,72
329,862	48,91
330,389	56,46
330,915	54,55
331,441	54,54
331,968	48,82
332,494	48,88
333,02	52,48
333,545	50,11
334,071	56,22
334,597	51,98
335,122	55,36
335,648	56,04
336,173	55,2
336,698	52,97
337,223	48,36
337,748	49,21
338,272	47,9
338,797	48,68
339,322	53,38
339,846	49,48
340,37	47,76
340,894	54,06
341,419	47,6
341,942	49,01
342,466	49,53
342,99	50,77
343,514	50,3
344,037	45,52
344,56	50,88
345,084	48,4
345,607	49,28
346,13	46,16
346,653	46,28
347,175	47,32
347,698	48,94
348,221	43,23
348,743	44,58
349,265	49,7
349,787	47,57
350,309	46,59
350,831	51,87
351,353	43,61
351,875	40,97
352,397	42,38
352,918	42,47
353,439	44,09
353,961	42,05
354,482	39,59
355,003	40,53
355,524	42
356,044	41,51
356,565	42,15
357,086	41,11
357,606	40,61
358,126	40,79
358,646	42,56
359,167	41,11
359,687	40,27
360,206	41,04
360,726	46,1
361,246	41,91
361,765	39,9
362,285	36,05
362,804	45,24
363,323	40,36
363,842	41,21
364,361	42,52
364,88	40,85
365,398	40,76
365,917	40,2
366,435	40,43
366,954	40,68
367,472	38,98
367,99	40,39
368,508	37,78
369,026	38,38
369,544	40,56
370,061	41,94
370,579	37,71
371,096	37,73
371,613	40,47
372,131	40,46
372,648	36,88
373,165	35,12
373,681	37,15
374,198	38,69
374,715	36,52
375,231	40,36
375,747	36,01
376,264	32,32
376,78	39,49
377,296	37,56
377,812	35,22
378,327	37,04
378,843	33,83
379,359	36,3
379,874	34,6
380,389	35,26
380,905	33,39
381,42	35
381,935	35,02
382,449	33,41
382,964	34,68
383,479	33,17
383,993	34,56
384,508	30,04
385,022	30,04
385,536	32,24
386,05	32,07
386,564	32,8
387,078	32,04
387,592	31,24
388,105	28,54
388,619	28,76
389,132	26,65
389,645	30,03
390,158	28,13
390,671	29,06
391,184	28,24
391,697	27,6
392,21	25,9
392,722	27,48
393,235	27,52
393,747	26,11
394,259	25,85
394,771	27,01
395,283	25,9
395,795	26,34
396,307	27,32
396,818	25,02
397,33	23,42
397,841	23,93
398,353	24,09
398,864	24,41
399,375	23,84
399,886	22,64
400,397	23,15
400,907	21,69
401,418	21,45
401,928	21,28
402,439	20,77
402,949	20,49
403,459	20,19
403,969	19,99
404,479	18,21
404,989	18,4
405,498	17,65
406,008	18,79
406,517	18,16
407,027	17,54
407,536	15,67
408,045	15,14
408,554	15,17
409,063	14,9
409,572	14,25
410,08	13,92
410,589	13,28
411,097	13,58
411,606	13,3
412,114	12,15
412,622	12
413,13	11,93
413,638	11,49
414,145	11,24
414,653	11,1
415,16	10,71
415,668	9,92
416,175	9,92
416,682	9,87
417,189	9,83
417,696	9,73
418,203	9,21
418,71	9,12
419,216	9,49
419,723	8,67
420,229	8,68
420,735	8,93
421,242	8,83
421,748	8,5
422,254	8,51
422,759	8,54
423,265	8,23
423,771	7,81
424,276	8,08
424,781	7,74
425,287	7,83
425,792	7,79
426,297	7,88
426,802	7,52
427,306	7,67
427,811	7,59
428,316	7,71
428,82	7,45
429,324	7,52
429,829	6,88
430,333	7,37
430,837	7,24
431,34	7,6
431,844	7,51
432,348	7,6
432,851	7,45
433,355	7,4
433,858	6,94
434,361	7,22
434,864	6,7
435,367	6,92
435,87	7,02
436,373	7,23
436,876	6,73
437,378	6,98
437,88	6,86
438,383	7
438,885	6,94
439,387	6,99
439,889	6,8
440,391	6,9
440,892	6,66
441,394	6,68
441,896	6,8
442,397	7,15
442,898	6,83
443,399	6,83
443,9	6,95
444,401	6,9
444,902	6,74
445,403	6,74
445,903	6,8
446,404	6,78
446,904	6,79
447,405	6,82
447,905	7,01
448,405	7,16
448,905	6,82
449,404	7,01
449,904	7,05
450,404	7,08
450,903	7,16
451,403	6,88
451,902	6,86
452,401	6,94
452,9	6,95
453,399	7,08
453,898	7,07
454,396	7,04
454,895	7,26
455,393	6,94
455,892	7,28
456,39	7,15
456,888	7,26
457,386	7,06
457,884	6,97
458,382	7,11
458,879	7,08
459,377	7,08
459,874	7,13
460,372	7,25
460,869	7,19
461,366	7,26
461,863	7,11
462,36	7
462,857	7,07
463,353	7,07
463,85	7,2
464,346	7,11
464,843	7,14
465,339	7,09
465,835	7,27
466,331	7,3
466,827	6,96
467,323	7,05
467,818	7,15
468,314	7,06
468,809	6,97
469,305	6,86
469,8	6,83
470,295	7,19
470,79	7,06
471,285	7,13
471,78	7,3
472,274	7,14
472,769	7,06
473,263	7,33
473,758	7,21
474,252	7,13
474,746	7,24
475,24	7,13
475,734	6,98
476,228	6,99
476,721	7,21
477,215	7,12
477,708	7,27
478,202	7,14
478,695	7,35
479,188	7,23
479,681	7
480,174	7,26
480,667	7,4
481,159	7,24
481,652	7,35
482,144	7,26
482,637	7,43
483,129	7,26
483,621	7,36
484,113	7,37
484,605	7,31
485,097	7,46
485,588	7,26
486,08	7,34
486,571	7,42
487,063	7,37
487,554	7,47
488,045	7,39
488,536	7,51
489,027	7,34
489,518	7,41
490,008	7,7
490,499	7,57
490,989	7,59
491,48	7,56
491,97	7,83
492,46	7,82
492,95	7,81
493,44	7,77
493,93	7,76
494,419	7,83
494,909	7,92
495,398	7,84
495,888	8,02
496,377	8
496,866	8,11
497,355	8,32
497,844	8,18
498,333	8,42
498,821	8,57
499,31	8,29
499,798	8,25
500,287	8,67
500,775	8,65
501,263	8,77
501,751	9,2
502,239	9,16
502,727	9,37
503,215	9,44
503,702	9,51
504,19	9,38
504,677	9,89
505,164	9,88
505,651	9,89
506,139	10,3
506,625	10,44
507,112	10,58
507,599	10,66
508,086	10,88
508,572	11,16
509,058	11,24
509,545	11,42
510,031	11,43
510,517	12,02
511,003	12,22
511,489	12,43
511,974	12,57
512,46	12,82
512,946	12,94
513,431	13,27
513,916	13,61
514,401	13,78
514,887	14,22
515,371	14,28
515,856	14,82
516,341	15,14
516,826	15,28
517,31	15,4
517,795	15,93
518,279	15,93
518,763	16,28
519,247	16,84
519,731	17,12
520,215	17,5
520,699	17,37
521,182	18
521,666	18,84
522,149	18,66
522,633	19,22
523,116	19,39
523,599	19,63
524,082	20,37
524,565	20,52
525,048	20,88
525,53	20,97
526,013	21,17
526,495	21,31
526,978	21,71
527,46	22,01
527,942	22,33
528,424	22,59
528,906	22,93
529,388	22,86
529,87	23,54
530,351	23,44
530,833	23,75
531,314	24,07
531,795	23,94
532,277	24,26
532,758	24,62
533,238	24,55
533,719	24,84
534,2	24,45
534,681	24,54
535,161	25,03
535,642	24,82
536,122	25,15
536,602	25,26
537,082	25,41
537,562	25,1
538,042	25,89
538,522	25,33
539,001	25,91
539,481	25,8
539,96	25,81
540,44	25,7
540,919	25,64
541,398	25,96
541,877	25,99
542,356	26,08
542,835	26,2
543,313	26,01
543,792	26,12
544,27	26,3
544,749	26,17
545,227	26,56
545,705	26,51
546,183	26,75
546,661	26,38
547,139	26,65
547,616	26,63
548,094	26,64
548,571	26,59
549,049	26,96
549,526	26,83
550,003	26,68
550,48	26,68
550,957	26,91
551,434	26,79
551,911	27,1
552,387	26,77
552,864	26,72
553,34	26,89
553,817	26,9
554,293	26,85
554,769	27,18
555,245	26,55
555,721	26,74
556,197	26,79
556,672	26,73
557,148	26,79
557,623	26,88
558,099	26,69
558,574	26,62
559,049	26,83
559,524	26,54
559,999	26,56
560,474	26,52
560,948	26,33
561,423	26,35
561,897	25,94
562,372	26,06
562,846	25,94
563,32	26,08
563,794	26
564,268	25,42
564,742	25,38
565,216	25,41
565,69	25,35
566,163	25,13
566,636	24,81
567,11	24,85
567,583	24,67
568,056	24,43
568,529	24,2
569,002	24,02
569,475	24,03
569,947	23,55
570,42	23,69
570,892	23,31
571,365	23,03
571,837	22,96
572,309	22,88
572,781	22,72
573,253	22,69
573,725	22,35
574,197	22,09
574,668	22,03
575,14	21,59
575,611	21,52
576,082	21,35
576,554	21,29
577,025	21,13
577,496	20,96
577,967	20,93
578,437	20,98
578,908	20,57
579,379	20,47
579,849	20,22
580,319	20,09
580,79	19,96
581,26	20,08
581,73	19,73
582,2	19,56
582,669	19,48
583,139	19,56
583,609	19,21
584,078	19,31
584,548	19,09
585,017	19,21
585,486	19,06
585,955	18,62
586,424	18,62
586,893	18,75
587,362	18,61
587,83	18,38
588,299	18,25
588,767	18,27
589,236	18,18
589,704	18,17
590,172	18,05
590,64	18,15
591,108	17,89
591,576	17,61
592,043	17,83
592,511	17,6
592,978	17,59
593,446	17,48
593,913	17,31
594,38	17,49
594,847	17,38
595,314	17,05
595,781	17,25
596,248	17,27
596,715	17,24
597,181	17,28
597,647	17,25
598,114	17,15
598,58	17,09
599,046	17,07
599,512	17,11
599,978	16,91
600,444	16,79
600,91	16,82
601,375	16,95
601,841	16,88
602,306	16,7
602,771	16,63
603,236	16,75
603,702	16,62
604,167	16,46
604,631	16,45
605,096	16,5
605,561	16,37
606,025	16,22
606,49	16,2
606,954	16,27
607,418	15,91
607,882	15,95
608,347	15,87
608,81	15,85
609,274	15,63
609,738	15,43
610,202	15,58
610,665	15,41
611,128	15,42
611,592	15,29
612,055	15,21
612,518	15,21
612,981	15,06
613,444	14,93
613,907	14,79
614,369	14,63
614,832	14,53
615,294	14,43
615,757	14,38
616,219	14,13
616,681	14,26
617,143	14,24
617,605	14,03
618,067	14,03
618,529	13,91
618,99	13,91
619,452	13,84
619,913	13,78
620,375	13,5
620,836	13,78
621,297	13,6
621,758	13,53
622,219	13,52
622,68	13,54
623,14	13,53
623,601	13,35
624,061	13,31
624,522	13,26
624,982	13,25
625,442	13,26
625,902	13,14
626,362	13,13
626,822	13,13
627,282	13,21
627,742	13,05
628,201	13,04
628,661	13,04
629,12	13,07
629,579	13,03
630,038	13,02
630,497	12,95
630,956	12,93
631,415	12,91
631,874	12,84
632,332	12,75
632,791	12,93
633,249	12,64
633,708	12,66
634,166	12,72
634,624	12,52
635,082	12,48
635,54	12,48
635,998	12,31
636,455	12,36
636,913	12,2
637,37	12,05
637,828	12
638,285	11,91
638,742	11,84
639,199	11,71
639,656	11,57
640,113	11,53
640,57	11,28
641,027	11,16
641,483	11,09
641,94	11,03
642,396	10,94
642,852	10,72
643,309	10,63
643,765	10,57
644,221	10,35
644,676	10,32
645,132	10,25
645,588	10,13
646,043	9,94
646,499	9,89
646,954	9,85
647,409	9,73
647,864	9,59
648,319	9,46
648,774	9,41
649,229	9,26
649,684	9,27
650,139	9,17
650,593	9,17
651,047	9,13
651,502	9,02
651,956	8,98
652,41	8,8
652,864	8,97
653,318	8,84
653,772	8,8
654,225	8,84
654,679	8,66
655,133	8,68
655,586	8,63
656,039	8,56
656,492	8,47
656,946	8,44
657,399	8,42
657,851	8,39
658,304	8,3
658,757	8,23
659,209	8,05
659,662	8,11
660,114	8,03
660,567	7,98
661,019	7,95
661,471	7,92
661,923	7,78
662,375	7,78
662,826	7,63
663,278	7,71
663,73	7,64
664,181	7,58
664,632	7,55
665,084	7,53
665,535	7,45
665,986	7,51
666,437	7,53
666,888	7,44
667,338	7,39
667,789	7,4
668,24	7,44
668,69	7,45
669,14	7,45
669,591	7,46
670,041	7,53
670,491	7,45
670,941	7,49
671,391	7,55
671,84	7,69
672,29	7,71
672,74	7,65
673,189	7,77
673,638	7,81
674,088	7,95
674,537	7,92
674,986	8,12
675,435	8,15
675,883	8,2
676,332	8,3
676,781	8,36
677,229	8,58
677,678	8,58
678,126	8,68
678,574	8,83
679,022	8,92
679,47	8,99
679,918	9,12
680,366	9,33
680,814	9,3
681,261	9,45
681,709	9,54
682,156	9,74
682,604	9,85
683,051	9,92
683,498	10,05
683,945	10,13
684,392	10,29
684,839	10,44
685,286	10,47
685,732	10,69
686,179	10,88
686,625	10,92
687,071	11,03
687,518	11,3
687,964	11,44
688,41	11,6
688,856	11,81
689,301	12,07
689,747	12,27
690,193	12,66
690,638	12,88
691,084	13,33
691,529	13,65
691,974	13,98
692,419	14,45
692,864	14,92
693,309	15,43
693,754	16,04
694,199	16,43
694,643	16,93
695,088	17,45
695,532	18,03
695,977	18,62
696,421	19,2
696,865	19,67
697,309	20,29
697,753	20,85
698,197	21,45
698,64	21,99
699,084	22,56
699,527	23,08
699,971	23,58
700,414	24,33
700,857	24,79
701,3	25,33
701,743	25,84
702,186	26,36
702,629	26,99
703,072	27,29
703,515	28,18
703,957	28,31
704,399	29,04
704,842	29,54
705,284	29,91
705,726	30,43
706,168	30,79
706,61	31,39
707,052	31,77
707,494	32,23
707,935	32,6
708,377	33,17
708,818	33,31
709,26	34,01
709,701	34,24
710,142	34,65
710,583	34,99
711,024	35,36
711,465	35,84
711,905	36,25
712,346	36,59
712,787	36,71
713,227	37,43
713,667	38,11
714,108	38,25
714,548	38,31
714,988	38,72
715,428	38,93
715,868	39,63
716,307	39,6
716,747	40,23
717,186	40,61
717,626	40,49
718,065	41,27
718,504	41,04
718,944	41,63
719,383	41,94
719,822	41,97
720,261	42,23
720,699	42,69
721,138	42,77
721,576	43,09
722,015	43,44
722,453	43,77
722,892	44,01
723,33	44,12
723,768	44,45
724,206	44,72
724,644	44,66
725,081	44,92
725,519	45,24
725,957	45,36
726,394	45,37
726,832	45,72
727,269	45,97
727,706	46
728,143	46,36
728,58	46,31
729,017	46,42
729,454	46,79
729,89	46,87
730,327	46,9
730,764	47,15
731,2	47,11
731,636	47,31
732,072	47,55
732,509	47,35
732,945	47,57
733,38	47,72
733,816	47,75
734,252	47,71
734,688	47,78
735,123	47,72
735,559	48,14
735,994	48,06
736,429	48,08
736,864	48,32
737,299	48,02
737,734	48,4
738,169	48,27
738,604	48,23
739,038	48,48
739,473	48,38
739,907	48,68
740,342	48,46
740,776	48,2
741,21	48,7
741,644	48,78
742,078	48,7
742,512	48,76
742,946	48,85
743,379	48,81
743,813	48,68
744,246	48,71
744,68	48,8
745,113	48,71
745,546	48,62
745,979	48,63
746,412	48,83
746,845	48,6
747,278	48,85
747,711	48,7
748,143	48,73
748,576	48,43
749,008	48,62
749,441	48,5
749,873	48,42
750,305	48,51
750,737	48,43
751,169	48,28
751,601	48,4
752,032	48,19
752,464	48,49
752,896	48,34
753,327	48,09
753,758	48,23
754,19	48,06
754,621	48,18
755,052	48,19
755,483	47,9
755,914	48,03
756,344	48,08
756,775	48,05
757,206	48,29
757,636	47,73
758,066	47,88
758,497	47,97
758,927	47,99
759,357	47,71
759,787	47,94
760,217	47,66
760,647	47,93
761,076	47,7
761,506	47,55
761,935	47,43
762,365	47,64
762,794	47,55
763,223	47,43
763,653	47,72
764,082	47,41
764,51	47,48
764,939	47,61
765,368	47,51
765,797	47,55
766,225	47,5
766,654	47,34
767,082	47,25
767,51	47,18
767,938	47,19
768,367	47,28
768,795	47,12
769,222	47,29
769,65	47,23
770,078	47,35
770,505	47,22
770,933	46,91
771,36	47,19
771,788	46,94
772,215	47,13
772,642	47,14
773,069	46,77
773,496	46,87
773,923	46,86
774,349	47,03
774,776	46,84
775,203	46,79
775,629	46,86
776,055	46,96
776,482	46,75
776,908	46,78
777,334	46,46
777,76	46,6
778,186	46,73
778,611	46,87
779,037	46,79
779,463	46,62
779,888	46,73
780,314	46,66
780,739	46,65
781,164	46,55
781,589	46,61
782,014	46,46
782,439	46,52
782,864	46,72
783,289	46,51
783,713	46,27
784,138	46,34
784,562	46,55
784,987	46,37
785,411	46,64
785,835	46,55
786,259	46,35
786,683	46,51
787,107	46,25
787,531	46,42
787,954	46,14
788,378	46,49
788,802	46,43
789,225	46,32
789,648	46,47
790,071	46,3
790,495	46,26
790,918	46,32
791,34	46,46
791,763	46,34
792,186	46,22
792,609	46,39
793,031	46,25
793,454	46,18
793,876	46,36
794,298	46,38
794,721	46,08
795,143	46,26
795,565	46,13
795,986	46,42
796,408	46,28
796,83	46,4
797,252	46,39
797,673	46,12
798,094	46,02
798,516	46,1
798,937	46,15
799,358	46,25
799,779	46,05
800,2	46,23
800,621	46,18
801,042	46,06
801,462	46,05
801,883	46,2
802,303	46,18
802,724	46,36
803,144	46,02
803,564	45,83
803,984	46,31
804,404	46,12
804,824	46,23
805,244	46,3
805,664	46,22
806,084	46,08
806,503	46,16
806,923	45,98
807,342	46,07
807,761	46,04
808,18	46
808,599	46,13
809,018	46,07
809,437	46,13
809,856	45,97
810,275	45,97
810,693	45,97
811,112	46,02
811,53	45,93
811,949	46,28
812,367	46
812,785	46,14
813,203	46,08
813,621	46,05
814,039	46,12
814,457	45,7
814,874	46,1
815,292	46,05
815,709	45,99
816,127	46,03
816,544	46,14
816,961	46,06
817,378	45,9
817,795	45,93
818,212	46,01
818,629	45,95
819,046	45,84
819,462	46,17
819,879	46,14
820,295	45,83
820,712	45,65
821,128	45,94
821,544	45,95
821,96	45,89
822,376	45,86
822,792	45,96
823,208	45,9
823,624	45,95
824,039	46,18
824,455	45,96
824,87	45,97
825,286	45,73
825,701	45,93
826,116	45,51
826,531	45,76
826,946	45,97
827,361	45,73
827,776	45,92
828,19	45,87
828,605	45,59
829,02	45,85
829,434	46,05
829,848	46,02
830,263	45,72
830,677	45,83
831,091	45,95
831,505	46,07
831,919	45,56
832,332	45,54
832,746	45,56
833,16	45,8
833,573	45,55
833,987	45,75
834,4	45,73
834,813	45,86
835,226	45,75
835,639	45,65
836,052	45,87
836,465	45,87
836,878	45,73
837,29	45,86
837,703	45,6
838,116	45,68
838,528	45,82
838,94	45,6
839,352	45,6
839,765	45,68
840,177	45,74
840,589	45,76
841	45,47
841,412	45,8
841,824	45,6
842,235	45,59
842,647	45,75
843,058	45,79
843,47	45,76
843,881	45,64
844,292	45,65
844,703	45,6
845,114	45,91
845,525	45,59
845,935	45,7
846,346	45,3
846,757	45,5
847,167	45,71
847,577	45,93
847,988	45,33
848,398	45,63
848,808	45,53
849,218	45,57
849,628	45,44
850,038	45,76
850,448	45,63
850,857	45,78
851,267	45,91
851,676	45,74
852,086	45,66
852,495	45,74
852,904	45,47
853,313	45,41
853,722	45,48
854,131	45,57
854,54	45,51
854,949	45,67
855,357	45,64
855,766	45,74
856,174	45,39
856,583	45,47
856,991	45,78
857,399	45,49
857,807	45,62
858,215	45,38
858,623	45,61
859,031	45,72
859,439	45,6
859,846	45,41
860,254	45,58
860,661	45,49
861,069	45,63
861,476	45,53
861,883	45,35
862,29	45,61
862,697	45,68
863,104	45,22
863,511	45,24
863,918	45,11
864,325	45,3
864,731	45,27
865,138	45,36
865,544	45,46
865,95	45,12
866,357	45,45
866,763	45,5
867,169	45,47
867,575	45,25
867,98	45,63
868,386	45,53
868,792	45,34
869,197	45,43
869,603	45,24
870,008	45,61
870,414	45,47
870,819	45,46
871,224	45,25
871,629	45,4
872,034	45,46
872,439	45,57
872,844	45,4
873,248	45,54
873,653	45,37
874,057	45,57
874,462	45,67
874,866	45,42
875,27	45,71
875,674	45,41
876,078	45,13
876,482	45,39
876,886	45,47
877,29	45,01
877,694	45,23
878,097	45,19
878,501	45,04
878,904	45,3
879,308	45,42
879,711	45,34
880,114	45,31
880,517	45,31
880,92	45,54
881,323	45,66
881,726	45,15
882,128	45,3
882,531	45,42
882,934	45,27
883,336	45,23
883,738	45,4
884,141	45,59
884,543	45,37
884,945	45,28
885,347	45,31
885,749	45,27
886,151	45,07
886,552	45,02
886,954	45,17
887,355	45,22
887,757	45,01
888,158	45,25
888,56	45,44
888,961	45,21
889,362	45,12
889,763	45,41
890,164	45,51
890,565	45,53
890,965	45,56
891,366	45,44
891,767	45,55
892,167	45,38
892,567	45,3
892,968	45,44
893,368	45,19
893,768	45,18
894,168	45,21
894,568	45,16
894,968	45,38
895,368	45,58
895,767	45,28
896,167	45,59
896,566	45,47
896,966	45,45
897,365	45,49
897,764	45,26
898,164	45,27
898,563	45,42
898,962	45,14
899,361	45,44
899,759	45,3
900,158	45,12
900,557	45,29
900,955	45,44
901,354	45,17
901,752	45,33
902,15	45,33
902,548	45,33
902,947	45,12
903,345	45,51
903,742	45,37
904,14	45,49
904,538	45,35
904,936	45,34
905,333	45,1
905,731	45,1
906,128	45,13
906,525	45,58
906,923	45,35
907,32	45,27
907,717	44,86
908,114	45,4
908,511	45,19
908,907	45,15
909,304	45,23
909,701	45,06
910,097	45
910,494	45,48
910,89	45,36
911,286	45,39
911,682	45,44
912,078	45,08
912,474	45,54
912,87	45,52
913,266	45,26
913,662	45,18
914,058	45,51
914,453	45,5
914,849	45,21
915,244	45,28
915,639	45,4
916,034	45,36
916,43	45,54
916,825	45,7
917,22	45,34
917,614	45,35
918,009	45,15
918,404	44,82
918,798	45,06
919,193	45,23
919,587	45,26
919,982	45,32
920,376	45,31
920,77	45,53
921,164	45,35
921,558	45,39
921,952	45,31
922,346	45,15
922,74	45,44
923,133	45,25
923,527	45,22
923,92	45,05
924,314	45,57
924,707	45,17
925,1	45
925,493	45,43
925,886	45,24
926,279	45,21
926,672	45,09
927,065	45,02
927,457	45,14
927,85	44,97
928,243	44,94
928,635	45,02
929,027	44,96
929,42	45,07
929,812	45,17
930,204	45,1
930,596	45,14
930,988	45,23
931,379	44,95
931,771	44,81
932,163	45,26
932,554	44,62
932,946	44,85
933,337	45,41
933,729	44,95
934,12	45,05
934,511	45,06
934,902	44,8
935,293	44,81
935,684	44,7
936,075	44,71
936,465	44,92
936,856	44,66
937,246	44,7
937,637	44,71
938,027	45,21
938,417	44,6
938,808	44,25
939,198	45,01
939,588	44,71
939,978	44,93
940,368	44,85
940,757	44,78
941,147	44,58
941,537	44,93
941,926	44,77
942,315	44,56
942,705	45,12
943,094	44,74
943,483	44,45
943,872	44,48
944,261	44,28
944,65	45,19
945,039	44,78
945,428	44,38
945,816	44,94
946,205	44,11
946,593	44,34
946,982	45
947,37	44,63
947,758	44,43
948,146	44,15
948,534	43,92
948,922	44,36
949,31	44,18
949,698	44,29
950,086	44,93
950,473	44,82
950,861	44,53
951,248	44,36
951,636	44,58
952,023	44,41
952,41	44,42
952,797	44,04
953,184	44,56
953,571	44,21
953,958	44,17
954,345	44,14
954,731	44,05
955,118	44,39
955,505	44,13
955,891	44,39
956,277	44,04
956,664	44,06
957,05	44,02
957,436	44,27
957,822	43,93
958,208	44,17
958,594	44
958,979	43,74
959,365	43,84
959,751	43,99
960,136	43,74
960,522	44,12
960,907	43,89
961,292	44,53
961,677	44,09
962,062	44,09
962,447	44,24
962,832	43,92
963,217	43,63
963,602	43,97
963,986	43,81
964,371	43,68
964,756	43,83
965,14	43,84
965,524	43,92
965,908	43,84
966,293	43,52
966,677	43,91
967,061	43,83
967,445	43,85
967,828	43,91
968,212	43,93
968,596	44,18
968,979	44,14
969,363	43,96
969,746	43,71
970,129	43,81
970,513	43,37
970,896	43,69
971,279	43,48
971,662	44
972,045	44,25
972,428	43,96
972,81	44,12
973,193	43,66
973,575	43,93
973,958	44,03
974,34	43,95
974,723	44,01
975,105	43,79
975,487	44,17
975,869	44,03
976,251	44,1
976,633	44,16
977,015	44,03
977,396	43,68
977,778	43,83
978,16	43,82
978,541	44,03
978,922	43,86
979,304	44,2
979,685	43,96
980,066	44,25
980,447	43,66
980,828	43,81
981,209	43,94
981,59	44,19
981,97	43,94
982,351	44,35
982,732	44,2
983,112	44,13
983,493	44,23
983,873	44,34
984,253	43,96
984,633	44,14
985,013	44,24
985,393	44,05
985,773	43,69
986,153	44,19
986,533	44,02
986,912	44,17
987,292	44,11
987,671	44,29
988,051	44,16
988,43	44,19
988,809	44
989,188	44,36
989,567	43,62
989,946	44,22
990,325	44,02
990,704	44,11
991,083	44,21
991,461	44,37
991,84	43,75
992,218	43,98
992,597	44,54
992,975	44,08
993,353	44,25
993,732	44,45
994,11	43,94
994,488	44,19
994,866	44,13
995,243	44,16
995,621	43,99
995,999	44,36
996,376	44,25
996,754	44,26
997,131	44,36
997,509	43,97
997,886	44,08
998,263	44,37
998,64	43,85
999,017	44,38
999,394	44,12
999,771	44,59
1000,148	44,41
1000,524	44,52
1000,901	44,19
1001,277	44,57
1001,654	44,29
1002,03	44,6
1002,406	44,54
1002,783	44,47
1003,159	44,61
1003,535	43,96
1003,911	44,36
1004,286	45,05
1004,662	43,82
1005,038	44,25
1005,414	44,47
1005,789	44,05
1006,164	44,25
1006,54	44,5
1006,915	44,38
1007,29	44,31
1007,665	44,53
1008,04	44,68
1008,415	44,2
1008,79	44,89
1009,165	44,53
1009,54	44,44
1009,914	44,6
1010,289	44,48
1010,663	44,47
1011,038	44,66
1011,412	44,93
1011,786	44,85
1012,16	44,27
1012,535	44,44
1012,909	45,08
1013,282	44,42
1013,656	44,78
1014,03	44,54
1014,404	44,82
1014,777	44,35
1015,151	44,86
1015,524	44,96
1015,897	44,92
1016,271	44,67
1016,644	44,61
1017,017	45,33
1017,39	44,8
1017,763	44,38
1018,136	44,53
1018,508	44,44
1018,881	45,27
1019,254	44,47
1019,626	45,15
1019,999	44,78
1020,371	44,14
1020,743	44,86
1021,116	44,71
1021,488	44,41
1021,86	44,85
1022,232	44,8
1022,604	44,41
1022,975	44,83
1023,347	45,11
1023,719	44,77
1024,09	45,15
1024,462	45,32
1024,833	45,05
1025,204	45,47
1025,576	45,18
1025,947	44,81
1026,318	45,3
1026,689	45,12
1027,06	44,97
1027,431	45,24
1027,801	45,33
1028,172	45,13
1028,543	45,24
1028,913	44,76
1029,284	45,24
1029,654	44,91
1030,024	44,99
1030,394	44,87
1030,764	44,88
1031,135	44,77
1031,504	44,44
1031,874	45,19
1032,244	45,16
1032,614	45
1032,983	45,2
1033,353	45,05
1033,722	45,3
1034,092	44,62
1034,461	45,09
1034,83	45,21
1035,2	45,02
1035,569	45,04
1035,938	45,02
1036,307	46,18
1036,675	45,94
1037,044	44,86
1037,413	45,6
1037,781	45,44
1038,15	45,4
1038,518	44,72
1038,887	45,69
1039,255	45,04
1039,623	45,1
1039,991	45,86
1040,359	45,72
1040,727	45,36
1041,095	45,24
1041,463	45,47
1041,831	45,33
1042,198	45,47
1042,566	44,92
1042,933	44,79
1043,301	45,74
1043,668	45,4
1044,035	45,44
1044,402	45,48
1044,77	45,26
1045,137	45,06
1045,503	45,38
1045,87	44,9
1046,237	45,39
1046,604	45,59
1046,97	45,95
1047,337	45,28
1047,703	45,51
1048,07	45,8
1048,436	45,64
1048,802	46,08
1049,168	46,06
1049,534	45,67
1049,9	46,06
1050,266	45,23
1050,632	45,11
1050,998	45,84
1051,364	45,67
1051,729	45,16
1052,095	45,29
1052,46	44,86
1052,825	45,85
1053,191	45,82
1053,556	45,16
1053,921	45,93
1054,286	45,5
1054,651	45,95
1055,016	46,34
1055,381	45,53
1055,745	45,68
1056,11	45,84
1056,475	46,52
1056,839	46,48
1057,203	45,28
1057,568	45,92
1057,932	45,96
1058,296	45,85
1058,66	45,99
1059,024	46,03
1059,388	46,53
1059,752	45,74
1060,116	45,97
1060,48	46,42
1060,843	46,36
1061,207	45,96
1061,57	46,52
1061,934	46
1062,297	45,62
1062,66	44,92
1063,023	45,97
1063,386	46,58
1063,749	46,32
1064,112	46,47
1064,475	46,55
1064,838	45,53
1065,201	45,34
1065,563	45,56
1065,926	46,46
1066,288	45,53
1066,651	46,19
1067,013	45,58
1067,375	46,29
1067,737	46,58
1068,099	45,93
1068,461	46,83
1068,823	46,51
1069,185	47,09
1069,547	46,2
1069,909	45,99
1070,27	47,04
1070,632	46,11
1070,993	45,72
1071,355	46,39
1071,716	45,7
1072,077	46,1
1072,438	46,36
1072,799	46,54
1073,16	46,74
1073,521	47,1
1073,882	46,59
1074,243	47
1074,603	45,93
1074,964	45,45
1075,325	47,08
1075,685	46,3
1076,045	46,95
1076,406	46,14
1076,766	46,58
1077,126	46,44
1077,486	46,5
1077,846	46,53
1078,206	47,22
1078,566	46,2
1078,925	47,14
1079,285	46,38
1079,645	46,42
1080,004	47,23
1080,364	45,98
1080,723	47,02
1081,082	45,42
1081,442	46,07
1081,801	46,26
1082,16	46,52
1082,519	46,29
1082,878	45,52
1083,237	45,98
1083,595	46,08
1083,954	47,47
1084,313	46,04
1084,671	48,2
1085,03	47,46
1085,388	46,95
1085,746	46,59
1086,104	45
1086,463	46,38
1086,821	46,89
1087,179	46,67
1087,537	45,96
1087,894	45,86
1088,252	47,98
1088,61	46,73
1088,967	45,63
1089,325	45,52
1089,682	46,95
1090,04	46,43
1090,397	46,1
1090,754	46,38
1091,111	47,24
1091,469	46,55
1091,826	45,58
1092,182	46,6
1092,539	47,13
1092,896	46,8
1093,253	47,42
1093,609	45,67
1093,966	46,54
1094,322	46,54
1094,679	45,91
1095,035	46,86
1095,391	46,98
1095,748	46
1096,104	46,92
1096,46	45,93
1096,816	46,47
1097,171	46,14
1097,527	47,3
1097,883	46,89
1098,239	46,38
1098,594	47,71
1098,95	48,42
1099,305	47,71
1099,66	46,67
1100,016	46,69
1100,371	46,56
1100,726	47,46
1101,081	47,19
1101,436	46,76
1101,791	45,61
1102,146	46,1
1102,5	45,8
1102,855	47,69
1103,21	48,48
1103,564	48,03
1103,918	46,85
1104,273	49,02
1104,627	47,2
1104,981	47,77
1105,335	46,71
1105,69	47,07
1106,043	47,03
1106,397	47,76
1106,751	46,85
1107,105	46,58
1107,459	45,53
1107,812	45,35
1108,166	49,84
1108,519	49,76
1108,873	47,13
1109,226	46,67
1109,579	48,99
1109,932	49,96
1110,285	46,82
1110,638	48,47
1110,991	49,42
1111,344	47,67
1111,697	48,08
1112,05	48,02
1112,402	49,07
1112,755	49,06
1113,107	49,8
1113,46	46,1
1113,812	47,53
1114,164	49,73
1114,517	47,81
1114,869	79,97
1115,221	68,01
1115,573	65,39
1115,924	71,64
