Data from D5__Relative__0__00055.txt Node

Date: Tue Jan 30 17:55:56 CET 2024
User: diatiterra
Spectrometer: HDX00911
Trigger mode: 0
Integration Time (sec): 6,000000E-3
Scans to average: 3
Nonlinearity correction enabled: true
Boxcar width: 0
Storing dark spectrum: false
XAxis mode: Wavelengths
Number of Pixels in Spectrum: 2068
>>>>>Begin Spectral Data<<<<<
194,468	55,28
195,025	37,24
195,581	39,41
196,138	30,43
196,694	29,77
197,251	23,05
197,807	23,32
198,363	23,48
198,919	20,87
199,474	22,1
200,03	21,38
200,586	20,81
201,141	16,8
201,696	21,22
202,251	19,55
202,806	19,55
203,361	20,29
203,916	17,27
204,471	19,59
205,025	20,24
205,58	23,23
206,134	21,73
206,688	18,87
207,242	17,28
207,796	26,22
208,35	21,64
208,904	19,4
209,457	20,3
210,011	22,15
210,564	18,61
211,117	22,95
211,67	23,25
212,223	25,61
212,776	22,48
213,329	20,39
213,881	23,48
214,434	18,12
214,986	18,84
215,538	22,76
216,09	18,66
216,642	20,57
217,194	18,93
217,746	21,75
218,297	17,53
218,849	22,75
219,4	23,25
219,951	19,63
220,502	24,74
221,053	19,04
221,604	20,97
222,155	20,33
222,705	19,13
223,256	20,77
223,806	24
224,356	21,76
224,906	18,89
225,456	18,65
226,006	20,27
226,556	17,77
227,106	25,43
227,655	19,12
228,204	22,43
228,754	23,22
229,303	22,78
229,852	22,17
230,401	22,5
230,949	21,07
231,498	21,26
232,047	17,21
232,595	23,34
233,143	23,09
233,691	21,47
234,239	19,52
234,787	23,1
235,335	21,2
235,883	19,25
236,43	22,15
236,978	21,13
237,525	22,99
238,072	18,83
238,619	19,56
239,166	20,59
239,713	18,25
240,26	18,84
240,806	20,61
241,353	23,69
241,899	24,02
242,445	16,91
242,991	17,45
243,537	21,14
244,083	20,69
244,629	24,24
245,174	17,93
245,72	18,97
246,265	19,77
246,81	21,63
247,355	15,12
247,9	26
248,445	17,85
248,99	25,43
249,534	19,42
250,079	22,47
250,623	22,04
251,168	22,52
251,712	18,89
252,256	15,9
252,8	22,29
253,343	22,95
253,887	23,12
254,43	23,85
254,974	17,26
255,517	21,25
256,06	20,18
256,603	22,39
257,146	20,04
257,689	16,02
258,232	20,13
258,774	23,39
259,317	23,59
259,859	23,25
260,401	28,64
260,943	19,49
261,485	17,84
262,027	20,44
262,569	25,25
263,11	21,35
263,652	22,87
264,193	19,91
264,734	18,12
265,275	18,98
265,816	20,36
266,357	22,91
266,898	22,29
267,438	21,75
267,979	25,4
268,519	20,71
269,059	22,98
269,6	24,22
270,14	21,64
270,68	22,06
271,219	22,33
271,759	21,93
272,298	13,17
272,838	23,96
273,377	22,22
273,916	21,01
274,455	17,71
274,994	27,15
275,533	21,33
276,072	26,32
276,61	21,17
277,149	16,56
277,687	21,83
278,225	20,21
278,763	24,05
279,301	19,31
279,839	20
280,377	21,47
280,914	23,52
281,452	25,12
281,989	20,66
282,526	20,57
283,064	28,82
283,601	25,7
284,137	21,33
284,674	23,63
285,211	23,98
285,747	22,48
286,284	24,2
286,82	18,89
287,356	22,55
287,892	20,86
288,428	17,62
288,964	23,86
289,5	23,38
290,035	21,75
290,571	23,83
291,106	23,15
291,641	22,4
292,176	25,15
292,711	21,81
293,246	22,55
293,781	21,48
294,315	22,15
294,85	23,51
295,384	26,06
295,918	21,94
296,453	18,6
296,987	21,41
297,52	20,09
298,054	19,95
298,588	16,9
299,121	24,21
299,655	20,39
300,188	23,14
300,721	21,58
301,254	23,41
301,787	24,15
302,32	25,65
302,853	22,27
303,385	20,22
303,918	17,23
304,45	17,28
304,982	21,37
305,514	22,02
306,046	20,21
306,578	21,34
307,11	23,62
307,641	24,44
308,173	22,17
308,704	24,48
309,236	19,72
309,767	20,42
310,298	21,47
310,829	19,96
311,359	26,14
311,89	19,55
312,421	23,74
312,951	19,38
313,481	22,48
314,012	21,89
314,542	22,32
315,072	25,59
315,601	19,36
316,131	28,93
316,661	23,85
317,19	16,75
317,72	23,7
318,249	23,24
318,778	25
319,307	18,16
319,836	22,37
320,365	21,26
320,893	24,61
321,422	22,17
321,95	23,78
322,479	22,89
323,007	17,52
323,535	19,06
324,063	20,31
324,591	22,05
325,118	22,97
325,646	20,35
326,173	23,93
326,701	22,88
327,228	22,89
327,755	24,64
328,282	21,37
328,809	21,49
329,336	24,89
329,862	23,91
330,389	20,28
330,915	23,73
331,441	24,1
331,968	21,32
332,494	22,02
333,02	22,58
333,545	24,4
334,071	19,78
334,597	20,04
335,122	24,07
335,648	19,37
336,173	20,62
336,698	19,71
337,223	20,9
337,748	19,84
338,272	21,02
338,797	17,9
339,322	21,79
339,846	24,02
340,37	24,22
340,894	24,57
341,419	21,71
341,942	16,01
342,466	19,66
342,99	22,17
343,514	21,06
344,037	21,18
344,56	25,34
345,084	19,4
345,607	22,42
346,13	20,85
346,653	14,99
347,175	15,96
347,698	20,48
348,221	14,41
348,743	17,16
349,265	16,94
349,787	18,17
350,309	17,67
350,831	18,37
351,353	16,68
351,875	15,99
352,397	17,01
352,918	16,03
353,439	16,77
353,961	14,3
354,482	15,59
355,003	15,28
355,524	13,74
356,044	14,93
356,565	14,48
357,086	16,01
357,606	13,43
358,126	15,74
358,646	16,17
359,167	14
359,687	12,77
360,206	12,76
360,726	14,97
361,246	13,58
361,765	13,21
362,285	13,75
362,804	13,19
363,323	13,5
363,842	13,5
364,361	13,23
364,88	13,98
365,398	14,36
365,917	14,85
366,435	11,04
366,954	12,08
367,472	10,58
367,99	12,52
368,508	10,99
369,026	9,66
369,544	11,27
370,061	11,7
370,579	11,07
371,096	11,07
371,613	12,54
372,131	12,25
372,648	11,67
373,165	10,16
373,681	9,56
374,198	9,43
374,715	8,44
375,231	12,59
375,747	11,5
376,264	10,23
376,78	9,67
377,296	9,08
377,812	9,67
378,327	11,18
378,843	10,17
379,359	10,27
379,874	11,59
380,389	9,68
380,905	9,93
381,42	6,95
381,935	9,07
382,449	8,17
382,964	6,76
383,479	7,7
383,993	9,27
384,508	6,95
385,022	7,4
385,536	8,6
386,05	7,03
386,564	7,44
387,078	7,71
387,592	7,78
388,105	6,64
388,619	6,95
389,132	5,97
389,645	6,49
390,158	6,04
390,671	5,63
391,184	4,83
391,697	6,52
392,21	5,74
392,722	5,78
393,235	6,07
393,747	4,88
394,259	4,93
394,771	6,06
395,283	5,37
395,795	6,6
396,307	6,39
396,818	5,96
397,33	5,39
397,841	4,45
398,353	5,03
398,864	3,88
399,375	4,76
399,886	5,41
400,397	3,86
400,907	3,95
401,418	4,07
401,928	5,04
402,439	4,7
402,949	3,36
403,459	3,19
403,969	3,98
404,479	3,76
404,989	3,22
405,498	3,14
406,008	4,05
406,517	2,83
407,027	3,5
407,536	2,91
408,045	2,7
408,554	3,09
409,063	2,72
409,572	2,54
410,08	2,49
410,589	2,42
411,097	2,31
411,606	2,41
412,114	1,94
412,622	2,15
413,13	2,3
413,638	2,06
414,145	2
414,653	2,19
415,16	1,87
415,668	2,17
416,175	1,95
416,682	1,71
417,189	1,85
417,696	1,39
418,203	1,6
418,71	1,6
419,216	1,54
419,723	1,59
420,229	1,56
420,735	1,46
421,242	1,6
421,748	1,47
422,254	1,42
422,759	1,33
423,265	1,47
423,771	1,31
424,276	1,28
424,781	1,26
425,287	1,36
425,792	1,34
426,297	1,13
426,802	1,22
427,306	1,08
427,811	1,33
428,316	1,2
428,82	1,05
429,324	1,18
429,829	1,08
430,333	1,11
430,837	1,11
431,34	0,89
431,844	1,08
432,348	1,16
432,851	0,91
433,355	1,14
433,858	0,93
434,361	0,98
434,864	0,99
435,367	0,84
435,87	0,98
436,373	1,06
436,876	0,94
437,378	0,97
437,88	0,93
438,383	0,94
438,885	1,01
439,387	1,08
439,889	0,99
440,391	0,91
440,892	0,93
441,394	0,82
441,896	0,9
442,397	1,06
442,898	0,86
443,399	0,71
443,9	0,85
444,401	0,92
444,902	0,74
445,403	0,68
445,903	0,9
446,404	0,78
446,904	0,82
447,405	0,81
447,905	0,71
448,405	1,08
448,905	0,92
449,404	0,85
449,904	0,83
450,404	0,83
450,903	0,75
451,403	0,9
451,902	0,82
452,401	0,79
452,9	0,72
453,399	0,74
453,898	0,8
454,396	0,77
454,895	0,79
455,393	0,63
455,892	0,75
456,39	0,77
456,888	0,74
457,386	0,91
457,884	0,69
458,382	0,81
458,879	0,65
459,377	0,79
459,874	0,78
460,372	0,7
460,869	0,68
461,366	0,7
461,863	0,7
462,36	0,8
462,857	0,68
463,353	0,72
463,85	0,72
464,346	0,65
464,843	0,74
465,339	0,79
465,835	0,74
466,331	0,77
466,827	0,76
467,323	0,64
467,818	0,74
468,314	0,71
468,809	0,66
469,305	0,67
469,8	0,8
470,295	0,7
470,79	0,73
471,285	0,72
471,78	0,71
472,274	0,71
472,769	0,76
473,263	0,7
473,758	0,64
474,252	0,66
474,746	0,63
475,24	0,62
475,734	0,66
476,228	0,63
476,721	0,67
477,215	0,64
477,708	0,82
478,202	0,72
478,695	0,69
479,188	0,64
479,681	0,61
480,174	0,67
480,667	0,72
481,159	0,72
481,652	0,75
482,144	0,63
482,637	0,72
483,129	0,61
483,621	0,59
484,113	0,71
484,605	0,65
485,097	0,72
485,588	0,62
486,08	0,67
486,571	0,74
487,063	0,69
487,554	0,7
488,045	0,73
488,536	0,78
489,027	0,69
489,518	0,67
490,008	0,66
490,499	0,74
490,989	0,67
491,48	0,73
491,97	0,73
492,46	0,75
492,95	0,71
493,44	0,68
493,93	0,69
494,419	0,72
494,909	0,7
495,398	0,7
495,888	0,68
496,377	0,71
496,866	0,76
497,355	0,69
497,844	0,8
498,333	0,73
498,821	0,73
499,31	0,81
499,798	0,75
500,287	0,76
500,775	0,73
501,263	0,81
501,751	0,86
502,239	0,84
502,727	0,84
503,215	0,82
503,702	0,82
504,19	0,86
504,677	0,82
505,164	0,9
505,651	0,87
506,139	0,95
506,625	1,04
507,112	0,96
507,599	0,98
508,086	0,96
508,572	0,99
509,058	1,01
509,545	0,99
510,031	1,05
510,517	1,12
511,003	1,15
511,489	1,09
511,974	1,23
512,46	1,2
512,946	1,23
513,431	1,21
513,916	1,3
514,401	1,23
514,887	1,36
515,371	1,38
515,856	1,42
516,341	1,4
516,826	1,42
517,31	1,46
517,795	1,56
518,279	1,51
518,763	1,58
519,247	1,58
519,731	1,54
520,215	1,69
520,699	1,63
521,182	1,65
521,666	1,7
522,149	1,76
522,633	1,83
523,116	1,77
523,599	1,9
524,082	1,94
524,565	1,92
525,048	2,01
525,53	1,98
526,013	2,09
526,495	1,98
526,978	2,07
527,46	2,14
527,942	2,16
528,424	2,14
528,906	2,2
529,388	2,17
529,87	2,34
530,351	2,17
530,833	2,23
531,314	2,16
531,795	2,31
532,277	2,37
532,758	2,39
533,238	2,45
533,719	2,36
534,2	2,35
534,681	2,48
535,161	2,42
535,642	2,49
536,122	2,44
536,602	2,36
537,082	2,45
537,562	2,48
538,042	2,48
538,522	2,42
539,001	2,41
539,481	2,46
539,96	2,51
540,44	2,6
540,919	2,51
541,398	2,65
541,877	2,66
542,356	2,63
542,835	2,58
543,313	2,69
543,792	2,69
544,27	2,55
544,749	2,72
545,227	2,74
545,705	2,73
546,183	2,77
546,661	2,73
547,139	2,68
547,616	2,57
548,094	2,65
548,571	2,59
549,049	2,6
549,526	2,49
550,003	2,55
550,48	2,59
550,957	2,6
551,434	2,53
551,911	2,55
552,387	2,6
552,864	2,55
553,34	2,61
553,817	2,57
554,293	2,55
554,769	2,55
555,245	2,58
555,721	2,55
556,197	2,49
556,672	2,56
557,148	2,66
557,623	2,54
558,099	2,54
558,574	2,59
559,049	2,56
559,524	2,54
559,999	2,46
560,474	2,49
560,948	2,46
561,423	2,44
561,897	2,45
562,372	2,42
562,846	2,44
563,32	2,41
563,794	2,48
564,268	2,48
564,742	2,42
565,216	2,34
565,69	2,37
566,163	2,4
566,636	2,32
567,11	2,34
567,583	2,24
568,056	2,33
568,529	2,34
569,002	2,24
569,475	2,25
569,947	2,24
570,42	2,24
570,892	2,21
571,365	2,19
571,837	2,1
572,309	2,13
572,781	2,08
573,253	2,09
573,725	2,01
574,197	2,02
574,668	2,03
575,14	2,05
575,611	2,01
576,082	2
576,554	2,03
577,025	1,98
577,496	1,93
577,967	1,93
578,437	1,89
578,908	1,89
579,379	1,84
579,849	1,84
580,319	1,89
580,79	1,86
581,26	1,85
581,73	1,76
582,2	1,81
582,669	1,78
583,139	1,77
583,609	1,75
584,078	1,73
584,548	1,76
585,017	1,74
585,486	1,74
585,955	1,72
586,424	1,71
586,893	1,65
587,362	1,7
587,83	1,65
588,299	1,64
588,767	1,66
589,236	1,65
589,704	1,56
590,172	1,62
590,64	1,63
591,108	1,62
591,576	1,57
592,043	1,63
592,511	1,59
592,978	1,54
593,446	1,56
593,913	1,56
594,38	1,55
594,847	1,56
595,314	1,48
595,781	1,53
596,248	1,59
596,715	1,49
597,181	1,55
597,647	1,54
598,114	1,49
598,58	1,48
599,046	1,49
599,512	1,5
599,978	1,5
600,444	1,5
600,91	1,5
601,375	1,49
601,841	1,46
602,306	1,49
602,771	1,55
603,236	1,46
603,702	1,46
604,167	1,44
604,631	1,47
605,096	1,44
605,561	1,44
606,025	1,44
606,49	1,41
606,954	1,38
607,418	1,4
607,882	1,35
608,347	1,37
608,81	1,4
609,274	1,37
609,738	1,38
610,202	1,39
610,665	1,41
611,128	1,39
611,592	1,47
612,055	1,39
612,518	1,35
612,981	1,36
613,444	1,35
613,907	1,29
614,369	1,23
614,832	1,25
615,294	1,21
615,757	1,26
616,219	1,23
616,681	1,22
617,143	1,2
617,605	1,21
618,067	1,24
618,529	1,19
618,99	1,2
619,452	1,16
619,913	1,15
620,375	1,15
620,836	1,14
621,297	1,13
621,758	1,14
622,219	1,14
622,68	1,1
623,14	1,14
623,601	1,11
624,061	1,11
624,522	1,08
624,982	1,05
625,442	1,08
625,902	1,02
626,362	1,08
626,822	1,12
627,282	1,11
627,742	1,06
628,201	1,08
628,661	1,05
629,12	1,05
629,579	1,07
630,038	1,09
630,497	1,09
630,956	1,06
631,415	1,11
631,874	1,07
632,332	1,07
632,791	1,07
633,249	1,06
633,708	1,02
634,166	1,05
634,624	1,04
635,082	1,03
635,54	1,03
635,998	1,01
636,455	1,02
636,913	0,99
637,37	0,98
637,828	0,95
638,285	0,93
638,742	0,97
639,199	0,92
639,656	0,96
640,113	0,94
640,57	0,94
641,027	0,91
641,483	0,88
641,94	0,87
642,396	0,88
642,852	0,86
643,309	0,83
643,765	0,83
644,221	0,79
644,676	0,82
645,132	0,8
645,588	0,78
646,043	0,77
646,499	0,73
646,954	0,74
647,409	0,73
647,864	0,7
648,319	0,72
648,774	0,69
649,229	0,68
649,684	0,67
650,139	0,65
650,593	0,66
651,047	0,66
651,502	0,67
651,956	0,64
652,41	0,64
652,864	0,65
653,318	0,62
653,772	0,64
654,225	0,65
654,679	0,62
655,133	0,6
655,586	0,64
656,039	0,61
656,492	0,6
656,946	0,6
657,399	0,61
657,851	0,56
658,304	0,6
658,757	0,58
659,209	0,55
659,662	0,55
660,114	0,53
660,567	0,54
661,019	0,53
661,471	0,53
661,923	0,51
662,375	0,47
662,826	0,49
663,278	0,51
663,73	0,48
664,181	0,49
664,632	0,49
665,084	0,47
665,535	0,46
665,986	0,45
666,437	0,46
666,888	0,46
667,338	0,45
667,789	0,49
668,24	0,45
668,69	0,45
669,14	0,49
669,591	0,46
670,041	0,49
670,491	0,46
670,941	0,47
671,391	0,47
671,84	0,48
672,29	0,48
672,74	0,48
673,189	0,49
673,638	0,49
674,088	0,52
674,537	0,52
674,986	0,52
675,435	0,52
675,883	0,53
676,332	0,53
676,781	0,55
677,229	0,58
677,678	0,56
678,126	0,58
678,574	0,6
679,022	0,6
679,47	0,61
679,918	0,61
680,366	0,61
680,814	0,65
681,261	0,61
681,709	0,65
682,156	0,68
682,604	0,67
683,051	0,68
683,498	0,72
683,945	0,71
684,392	0,75
684,839	0,76
685,286	0,78
685,732	0,76
686,179	0,78
686,625	0,83
687,071	0,81
687,518	0,85
687,964	0,85
688,41	0,86
688,856	0,9
689,301	0,93
689,747	0,96
690,193	1
690,638	1
691,084	1,08
691,529	1,12
691,974	1,16
692,419	1,19
692,864	1,25
693,309	1,27
693,754	1,34
694,199	1,4
694,643	1,45
695,088	1,5
695,532	1,56
695,977	1,61
696,421	1,7
696,865	1,72
697,309	1,81
697,753	1,83
698,197	1,89
698,64	1,99
699,084	2,02
699,527	2,06
699,971	2,14
700,414	2,2
700,857	2,24
701,3	2,31
701,743	2,37
702,186	2,46
702,629	2,47
703,072	2,5
703,515	2,61
703,957	2,63
704,399	2,66
704,842	2,72
705,284	2,75
705,726	2,81
706,168	2,85
706,61	2,89
707,052	2,92
707,494	2,99
707,935	3,04
708,377	3,08
708,818	3,14
709,26	3,18
709,701	3,15
710,142	3,19
710,583	3,28
711,024	3,29
711,465	3,32
711,905	3,37
712,346	3,42
712,787	3,48
713,227	3,5
713,667	3,5
714,108	3,59
714,548	3,56
714,988	3,67
715,428	3,66
715,868	3,7
716,307	3,73
716,747	3,77
717,186	3,77
717,626	3,84
718,065	3,8
718,504	3,83
718,944	3,87
719,383	3,94
719,822	3,95
720,261	3,98
720,699	4,01
721,138	4,07
721,576	4,02
722,015	4,06
722,453	4,13
722,892	4,11
723,33	4,17
723,768	4,17
724,206	4,16
724,644	4,25
725,081	4,27
725,519	4,24
725,957	4,3
726,394	4,26
726,832	4,27
727,269	4,27
727,706	4,33
728,143	4,35
728,58	4,37
729,017	4,4
729,454	4,4
729,89	4,41
730,327	4,33
730,764	4,41
731,2	4,43
731,636	4,44
732,072	4,4
732,509	4,47
732,945	4,49
733,38	4,48
733,816	4,46
734,252	4,51
734,688	4,5
735,123	4,43
735,559	4,55
735,994	4,52
736,429	4,51
736,864	4,5
737,299	4,5
737,734	4,54
738,169	4,51
738,604	4,53
739,038	4,51
739,473	4,53
739,907	4,57
740,342	4,56
740,776	4,54
741,21	4,56
741,644	4,53
742,078	4,6
742,512	4,6
742,946	4,55
743,379	4,54
743,813	4,58
744,246	4,54
744,68	4,54
745,113	4,56
745,546	4,52
745,979	4,54
746,412	4,6
746,845	4,53
747,278	4,58
747,711	4,51
748,143	4,54
748,576	4,6
749,008	4,51
749,441	4,5
749,873	4,56
750,305	4,59
750,737	4,56
751,169	4,56
751,601	4,55
752,032	4,53
752,464	4,54
752,896	4,5
753,327	4,55
753,758	4,53
754,19	4,53
754,621	4,6
755,052	4,53
755,483	4,51
755,914	4,54
756,344	4,51
756,775	4,5
757,206	4,51
757,636	4,5
758,066	4,52
758,497	4,51
758,927	4,43
759,357	4,48
759,787	4,57
760,217	4,48
760,647	4,46
761,076	4,53
761,506	4,44
761,935	4,47
762,365	4,5
762,794	4,42
763,223	4,49
763,653	4,48
764,082	4,45
764,51	4,47
764,939	4,47
765,368	4,46
765,797	4,38
766,225	4,5
766,654	4,45
767,082	4,47
767,51	4,45
767,938	4,38
768,367	4,42
768,795	4,45
769,222	4,45
769,65	4,47
770,078	4,42
770,505	4,47
770,933	4,37
771,36	4,4
771,788	4,45
772,215	4,48
772,642	4,43
773,069	4,43
773,496	4,38
773,923	4,43
774,349	4,36
774,776	4,38
775,203	4,39
775,629	4,46
776,055	4,46
776,482	4,37
776,908	4,35
777,334	4,38
777,76	4,4
778,186	4,42
778,611	4,41
779,037	4,45
779,463	4,32
779,888	4,41
780,314	4,4
780,739	4,4
781,164	4,38
781,589	4,4
782,014	4,35
782,439	4,36
782,864	4,36
783,289	4,34
783,713	4,38
784,138	4,34
784,562	4,33
784,987	4,32
785,411	4,38
785,835	4,4
786,259	4,29
786,683	4,36
787,107	4,44
787,531	4,4
787,954	4,37
788,378	4,35
788,802	4,39
789,225	4,41
789,648	4,31
790,071	4,33
790,495	4,32
790,918	4,37
791,34	4,38
791,763	4,32
792,186	4,34
792,609	4,38
793,031	4,35
793,454	4,31
793,876	4,44
794,298	4,37
794,721	4,35
795,143	4,31
795,565	4,35
795,986	4,29
796,408	4,36
796,83	4,35
797,252	4,41
797,673	4,34
798,094	4,39
798,516	4,28
798,937	4,37
799,358	4,39
799,779	4,36
800,2	4,37
800,621	4,36
801,042	4,4
801,462	4,32
801,883	4,36
802,303	4,35
802,724	4,28
803,144	4,4
803,564	4,4
803,984	4,38
804,404	4,33
804,824	4,35
805,244	4,35
805,664	4,36
806,084	4,27
806,503	4,41
806,923	4,37
807,342	4,37
807,761	4,31
808,18	4,29
808,599	4,32
809,018	4,37
809,437	4,35
809,856	4,32
810,275	4,39
810,693	4,38
811,112	4,34
811,53	4,32
811,949	4,33
812,367	4,35
812,785	4,4
813,203	4,29
813,621	4,36
814,039	4,34
814,457	4,35
814,874	4,32
815,292	4,27
815,709	4,34
816,127	4,29
816,544	4,37
816,961	4,29
817,378	4,34
817,795	4,41
818,212	4,36
818,629	4,32
819,046	4,33
819,462	4,33
819,879	4,35
820,295	4,32
820,712	4,34
821,128	4,31
821,544	4,31
821,96	4,32
822,376	4,32
822,792	4,34
823,208	4,3
823,624	4,36
824,039	4,29
824,455	4,36
824,87	4,37
825,286	4,29
825,701	4,39
826,116	4,33
826,531	4,35
826,946	4,31
827,361	4,31
827,776	4,26
828,19	4,35
828,605	4,27
829,02	4,32
829,434	4,34
829,848	4,37
830,263	4,32
830,677	4,31
831,091	4,27
831,505	4,33
831,919	4,34
832,332	4,29
832,746	4,32
833,16	4,34
833,573	4,28
833,987	4,38
834,4	4,32
834,813	4,32
835,226	4,37
835,639	4,36
836,052	4,3
836,465	4,31
836,878	4,31
837,29	4,3
837,703	4,35
838,116	4,34
838,528	4,31
838,94	4,32
839,352	4,32
839,765	4,29
840,177	4,34
840,589	4,32
841	4,4
841,412	4,31
841,824	4,26
842,235	4,29
842,647	4,33
843,058	4,31
843,47	4,4
843,881	4,37
844,292	4,32
844,703	4,31
845,114	4,33
845,525	4,36
845,935	4,3
846,346	4,33
846,757	4,29
847,167	4,34
847,577	4,35
847,988	4,32
848,398	4,35
848,808	4,28
849,218	4,24
849,628	4,33
850,038	4,28
850,448	4,28
850,857	4,36
851,267	4,3
851,676	4,33
852,086	4,31
852,495	4,3
852,904	4,32
853,313	4,32
853,722	4,25
854,131	4,25
854,54	4,35
854,949	4,41
855,357	4,26
855,766	4,3
856,174	4,42
856,583	4,3
856,991	4,34
857,399	4,31
857,807	4,3
858,215	4,3
858,623	4,38
859,031	4,31
859,439	4,25
859,846	4,3
860,254	4,31
860,661	4,32
861,069	4,29
861,476	4,31
861,883	4,22
862,29	4,34
862,697	4,35
863,104	4,3
863,511	4,28
863,918	4,32
864,325	4,24
864,731	4,27
865,138	4,29
865,544	4,32
865,95	4,29
866,357	4,31
866,763	4,29
867,169	4,28
867,575	4,27
867,98	4,34
868,386	4,31
868,792	4,38
869,197	4,29
869,603	4,27
870,008	4,3
870,414	4,33
870,819	4,24
871,224	4,3
871,629	4,29
872,034	4,29
872,439	4,23
872,844	4,33
873,248	4,33
873,653	4,26
874,057	4,31
874,462	4,27
874,866	4,33
875,27	4,26
875,674	4,36
876,078	4,3
876,482	4,27
876,886	4,33
877,29	4,32
877,694	4,29
878,097	4,29
878,501	4,23
878,904	4,26
879,308	4,29
879,711	4,36
880,114	4,35
880,517	4,23
880,92	4,32
881,323	4,33
881,726	4,3
882,128	4,23
882,531	4,31
882,934	4,31
883,336	4,36
883,738	4,34
884,141	4,23
884,543	4,33
884,945	4,32
885,347	4,27
885,749	4,31
886,151	4,23
886,552	4,32
886,954	4,25
887,355	4,24
887,757	4,27
888,158	4,26
888,56	4,32
888,961	4,29
889,362	4,26
889,763	4,31
890,164	4,3
890,565	4,24
890,965	4,23
891,366	4,3
891,767	4,29
892,167	4,32
892,567	4,39
892,968	4,28
893,368	4,31
893,768	4,32
894,168	4,29
894,568	4,25
894,968	4,3
895,368	4,27
895,767	4,25
896,167	4,28
896,566	4,28
896,966	4,25
897,365	4,24
897,764	4,27
898,164	4,28
898,563	4,3
898,962	4,34
899,361	4,25
899,759	4,28
900,158	4,24
900,557	4,26
900,955	4,31
901,354	4,27
901,752	4,27
902,15	4,29
902,548	4,36
902,947	4,28
903,345	4,25
903,742	4,27
904,14	4,28
904,538	4,31
904,936	4,33
905,333	4,2
905,731	4,21
906,128	4,24
906,525	4,26
906,923	4,27
907,32	4,31
907,717	4,23
908,114	4,2
908,511	4,23
908,907	4,24
909,304	4,23
909,701	4,27
910,097	4,29
910,494	4,33
910,89	4,28
911,286	4,31
911,682	4,32
912,078	4,24
912,474	4,31
912,87	4,27
913,266	4,33
913,662	4,28
914,058	4,16
914,453	4,24
914,849	4,23
915,244	4,29
915,639	4,32
916,034	4,3
916,43	4,26
916,825	4,26
917,22	4,29
917,614	4,33
918,009	4,3
918,404	4,32
918,798	4,29
919,193	4,3
919,587	4,31
919,982	4,35
920,376	4,39
920,77	4,2
921,164	4,29
921,558	4,28
921,952	4,25
922,346	4,23
922,74	4,37
923,133	4,26
923,527	4,17
923,92	4,27
924,314	4,27
924,707	4,26
925,1	4,27
925,493	4,28
925,886	4,24
926,279	4,31
926,672	4,32
927,065	4,28
927,457	4,32
927,85	4,32
928,243	4,26
928,635	4,28
929,027	4,25
929,42	4,27
929,812	4,29
930,204	4,25
930,596	4,25
930,988	4,3
931,379	4,3
931,771	4,33
932,163	4,29
932,554	4,3
932,946	4,29
933,337	4,29
933,729	4,32
934,12	4,22
934,511	4,31
934,902	4,3
935,293	4,17
935,684	4,33
936,075	4,31
936,465	4,28
936,856	4,43
937,246	4,26
937,637	4,28
938,027	4,38
938,417	4,48
938,808	4,4
939,198	4,39
939,588	4,5
939,978	4,39
940,368	4,31
940,757	4,38
941,147	4,37
941,537	4,46
941,926	4,44
942,315	4,38
942,705	4,51
943,094	4,38
943,483	4,38
943,872	4,39
944,261	4,43
944,65	4,45
945,039	4,37
945,428	4,21
945,816	4,28
946,205	4,43
946,593	4,43
946,982	4,52
947,37	4,49
947,758	4,41
948,146	4,27
948,534	4,56
948,922	4,33
949,31	4,27
949,698	4,41
950,086	4,36
950,473	4,34
950,861	4,37
951,248	4,33
951,636	4,29
952,023	4,31
952,41	4,22
952,797	4,29
953,184	4,32
953,571	4,22
953,958	4,23
954,345	4,34
954,731	4,27
955,118	4,28
955,505	4,29
955,891	4,42
956,277	4,26
956,664	4,17
957,05	4,25
957,436	4,26
957,822	4,23
958,208	4,18
958,594	4,19
958,979	4,38
959,365	4,38
959,751	4,18
960,136	4,17
960,522	4,17
960,907	4,21
961,292	4,24
961,677	4,14
962,062	4,18
962,447	4,26
962,832	4,25
963,217	4,26
963,602	4,11
963,986	4,25
964,371	4,18
964,756	4,28
965,14	4,19
965,524	4,21
965,908	4,21
966,293	4,2
966,677	4,16
967,061	4,2
967,445	4,22
967,828	4,21
968,212	4,24
968,596	4,24
968,979	4,19
969,363	4,19
969,746	4,24
970,129	4,13
970,513	4,31
970,896	4,14
971,279	4,1
971,662	4,21
972,045	4,13
972,428	4,24
972,81	4,3
973,193	4,24
973,575	4,14
973,958	4,2
974,34	4,14
974,723	4,1
975,105	4,18
975,487	4,14
975,869	4,16
976,251	4,28
976,633	4,32
977,015	4,16
977,396	4,23
977,778	4,19
978,16	4,12
978,541	4,25
978,922	4,11
979,304	4,2
979,685	4,26
980,066	4,25
980,447	4,27
980,828	4,18
981,209	4,24
981,59	4,24
981,97	4,09
982,351	4,14
982,732	4,31
983,112	4,3
983,493	4,11
983,873	4,2
984,253	4,18
984,633	4
985,013	4,32
985,393	4,12
985,773	4,42
986,153	4,17
986,533	4,16
986,912	4,23
987,292	4,2
987,671	4,16
988,051	4,25
988,43	4,09
988,809	4,29
989,188	4,32
989,567	4,27
989,946	4,25
990,325	4,21
990,704	4,19
991,083	4,26
991,461	4,17
991,84	4,23
992,218	4,25
992,597	4,18
992,975	4,29
993,353	4,28
993,732	4,21
994,11	4,16
994,488	4,23
994,866	4,26
995,243	4,11
995,621	4,34
995,999	4,18
996,376	4,15
996,754	4,31
997,131	4,32
997,509	4,23
997,886	4,36
998,263	4,28
998,64	4,25
999,017	4,23
999,394	4,17
999,771	4,21
1000,148	4,23
1000,524	4,29
1000,901	4,25
1001,277	4,26
1001,654	4,32
1002,03	4,3
1002,406	4,28
1002,783	4,3
1003,159	4,34
1003,535	4,2
1003,911	4,33
1004,286	4,37
1004,662	4,27
1005,038	4,3
1005,414	4,26
1005,789	4,29
1006,164	4,19
1006,54	4,37
1006,915	4,27
1007,29	4,35
1007,665	4,28
1008,04	4,2
1008,415	4,23
1008,79	4,37
1009,165	4,44
1009,54	4,34
1009,914	4,39
1010,289	4,38
1010,663	4,41
1011,038	4,42
1011,412	4,41
1011,786	4,3
1012,16	4,25
1012,535	4,35
1012,909	4,29
1013,282	4,41
1013,656	4,27
1014,03	4,37
1014,404	4,36
1014,777	4,36
1015,151	4,38
1015,524	4,38
1015,897	4,35
1016,271	4,35
1016,644	4,57
1017,017	4,32
1017,39	4,29
1017,763	4,23
1018,136	4,35
1018,508	4,36
1018,881	4,54
1019,254	4,23
1019,626	4,28
1019,999	4,36
1020,371	4,26
1020,743	4,47
1021,116	4,51
1021,488	4,41
1021,86	4,44
1022,232	4,52
1022,604	4,36
1022,975	4,59
1023,347	4,46
1023,719	4,5
1024,09	4,59
1024,462	4,47
1024,833	4,28
1025,204	4,35
1025,576	4,52
1025,947	4,42
1026,318	4,41
1026,689	4,5
1027,06	4,45
1027,431	4,38
1027,801	4,46
1028,172	4,41
1028,543	4,47
1028,913	4,25
1029,284	4,45
1029,654	4,46
1030,024	4,36
1030,394	4,5
1030,764	4,39
1031,135	4,36
1031,504	4,41
1031,874	4,37
1032,244	4,34
1032,614	4,49
1032,983	4,48
1033,353	4,48
1033,722	4,38
1034,092	4,49
1034,461	4,58
1034,83	4,42
1035,2	4,38
1035,569	4,54
1035,938	4,45
1036,307	4,71
1036,675	4,53
1037,044	4,55
1037,413	4,48
1037,781	4,54
1038,15	4,7
1038,518	4,54
1038,887	4,4
1039,255	4,59
1039,623	4,63
1039,991	4,66
1040,359	4,66
1040,727	4,67
1041,095	4,6
1041,463	4,63
1041,831	4,46
1042,198	4,72
1042,566	4,6
1042,933	4,51
1043,301	4,48
1043,668	4,71
1044,035	4,46
1044,402	4,64
1044,77	4,53
1045,137	4,56
1045,503	4,78
1045,87	4,51
1046,237	4,56
1046,604	4,76
1046,97	4,63
1047,337	4,63
1047,703	4,67
1048,07	4,62
1048,436	4,72
1048,802	4,57
1049,168	4,7
1049,534	4,65
1049,9	4,7
1050,266	4,64
1050,632	4,88
1050,998	4,87
1051,364	4,6
1051,729	4,58
1052,095	4,87
1052,46	4,9
1052,825	4,63
1053,191	4,81
1053,556	4,65
1053,921	4,95
1054,286	4,63
1054,651	4,75
1055,016	4,88
1055,381	4,6
1055,745	4,67
1056,11	4,71
1056,475	4,7
1056,839	4,87
1057,203	4,74
1057,568	4,74
1057,932	4,81
1058,296	4,74
1058,66	5,03
1059,024	4,54
1059,388	4,83
1059,752	5,12
1060,116	4,82
1060,48	4,92
1060,843	5,14
1061,207	5,16
1061,57	4,84
1061,934	4,63
1062,297	5,01
1062,66	4,78
1063,023	4,79
1063,386	5,43
1063,749	5,01
1064,112	5,08
1064,475	5,14
1064,838	4,91
1065,201	5,04
1065,563	5,07
1065,926	5,09
1066,288	5,52
1066,651	5,15
1067,013	5,24
1067,375	5,13
1067,737	5,12
1068,099	5,02
1068,461	5,09
1068,823	5,16
1069,185	5,41
1069,547	5,28
1069,909	5,14
1070,27	5,23
1070,632	5,37
1070,993	5,08
1071,355	5,2
1071,716	5,42
1072,077	5,13
1072,438	4,97
1072,799	5,53
1073,16	5,5
1073,521	5,68
1073,882	5,07
1074,243	5,74
1074,603	5,37
1074,964	5,41
1075,325	5,37
1075,685	5,42
1076,045	5,23
1076,406	5,82
1076,766	5,37
1077,126	5,55
1077,486	5,18
1077,846	5,49
1078,206	4,87
1078,566	5,3
1078,925	5,59
1079,285	5,15
1079,645	5,48
1080,004	5,71
1080,364	5,53
1080,723	5,65
1081,082	4,8
1081,442	5,51
1081,801	5,43
1082,16	5,41
1082,519	5,42
1082,878	5,81
1083,237	5,59
1083,595	5,68
1083,954	5,85
1084,313	5,74
1084,671	5,53
1085,03	5,69
1085,388	5,55
1085,746	5,3
1086,104	5,46
1086,463	5,52
1086,821	5,25
1087,179	5,72
1087,537	5,73
1087,894	6,19
1088,252	5,85
1088,61	5,93
1088,967	6,16
1089,325	5,92
1089,682	5,85
1090,04	5,73
1090,397	6,77
1090,754	6,05
1091,111	5,33
1091,469	5,89
1091,826	6,02
1092,182	6,52
1092,539	6,26
1092,896	5,69
1093,253	6,32
1093,609	5,81
1093,966	6,03
1094,322	6,38
1094,679	6,05
1095,035	5,88
1095,391	6,3
1095,748	6,28
1096,104	6,72
1096,46	6,55
1096,816	6,02
1097,171	6,82
1097,527	6,47
1097,883	6,32
1098,239	7,29
1098,594	6,91
1098,95	7,28
1099,305	6,82
1099,66	6,84
1100,016	6,66
1100,371	6,64
1100,726	6,45
1101,081	6,97
1101,436	7,09
1101,791	6,92
1102,146	6,78
1102,5	6,01
1102,855	6,51
1103,21	6,91
1103,564	7,59
1103,918	7,4
1104,273	7,11
1104,627	7,33
1104,981	6,55
1105,335	6,98
1105,69	7,27
1106,043	6,82
1106,397	8,09
1106,751	7,27
1107,105	7,5
1107,459	6,72
1107,812	7,36
1108,166	7,37
1108,519	7,83
1108,873	7,08
1109,226	6,87
1109,579	7,6
1109,932	7,33
1110,285	7,95
1110,638	7,33
1110,991	8,43
1111,344	7,37
1111,697	8,88
1112,05	8,28
1112,402	7,86
1112,755	8,41
1113,107	8,36
1113,46	9,11
1113,812	9,67
1114,164	8,94
1114,517	8,44
1114,869	46,17
1115,221	38,86
1115,573	40,98
1115,924	34,68
