Data from A2_Relative__1__00001.txt Node

Date: Thu Feb 01 16:14:19 CET 2024
User: diatiterra
Spectrometer: HDX00911
Trigger mode: 0
Integration Time (sec): 6,000000E-3
Scans to average: 2
Nonlinearity correction enabled: false
Boxcar width: 0
Storing dark spectrum: false
XAxis mode: Wavelengths
Number of Pixels in Spectrum: 2068
>>>>>Begin Spectral Data<<<<<
194,468	46,15
195,025	41,67
195,581	46,97
196,138	11,76
196,694	31,87
197,251	43,65
197,807	23,26
198,363	21,3
198,919	26,63
199,474	17,2
200,03	32,39
200,586	13,29
201,141	21,65
201,696	22,54
202,251	17,13
202,806	24,71
203,361	27,32
203,916	27,03
204,471	20,65
205,025	29,19
205,58	15,03
206,134	22,87
206,688	14,66
207,242	26,16
207,796	16,67
208,35	25,58
208,904	12,99
209,457	22,35
210,011	26,38
210,564	24,19
211,117	27,45
211,67	23,6
212,223	23,71
212,776	14,97
213,329	22,46
213,881	16,06
214,434	27
214,986	27,71
215,538	19,57
216,09	28,12
216,642	26,51
217,194	26,47
217,746	28
218,297	14,44
218,849	22,09
219,4	21,67
219,951	24,57
220,502	13,61
221,053	15,48
221,604	30,77
222,155	21,39
222,705	14,62
223,256	19,1
223,806	18,29
224,356	18,56
224,906	24,24
225,456	17,11
226,006	23,5
226,556	16,76
227,106	15,85
227,655	23,56
228,204	28,25
228,754	31,03
229,303	26,47
229,852	24,44
230,401	21,6
230,949	32,2
231,498	19,68
232,047	18,33
232,595	20,69
233,143	25,79
233,691	23,63
234,239	20,77
234,787	23,26
235,335	31,98
235,883	23,68
236,43	21,29
236,978	18,09
237,525	13,07
238,072	19,44
238,619	25,61
239,166	24,02
239,713	27,37
240,26	32,75
240,806	25,15
241,353	18,02
241,899	13,19
242,445	17,75
242,991	23,24
243,537	23,53
244,083	23,08
244,629	28
245,174	18,97
245,72	20,11
246,265	27,23
246,81	17,61
247,355	24,73
247,9	27,65
248,445	24,2
248,99	17,22
249,534	26,97
250,079	10,84
250,623	16,85
251,168	24,14
251,712	21,76
252,256	16,15
252,8	25,99
253,343	34,62
253,887	20,22
254,43	21,02
254,974	25,14
255,517	20,9
256,06	25
256,603	31,46
257,146	19,89
257,689	15,87
258,232	22,75
258,774	26,79
259,317	21,98
259,859	24,61
260,401	21,35
260,943	24,84
261,485	27,57
262,027	21,69
262,569	24,5
263,11	16,95
263,652	27,47
264,193	14,77
264,734	10,53
265,275	16,15
265,816	14,59
266,357	22,75
266,898	17,17
267,438	17,09
267,979	14,2
268,519	19,64
269,059	14,46
269,6	19,67
270,14	14,8
270,68	10,96
271,219	13,22
271,759	23,08
272,298	25,95
272,838	8,77
273,377	18,44
273,916	14,77
274,455	28,21
274,994	17,22
275,533	14,37
276,072	17,37
276,61	26,63
277,149	18,82
277,687	11,45
278,225	19,41
278,763	19,65
279,301	22,34
279,839	21,81
280,377	9,94
280,914	22,68
281,452	21,79
281,989	20,59
282,526	27,22
283,064	16,88
283,601	17,98
284,137	14,11
284,674	28,09
285,211	23,12
285,747	29,65
286,284	14,12
286,82	15,62
287,356	21,65
287,892	18,78
288,428	20,11
288,964	29,03
289,5	23,12
290,035	27,27
290,571	17,46
291,106	16,85
291,641	22,67
292,176	20,43
292,711	20,93
293,246	21,74
293,781	25,97
294,315	17,35
294,85	10,97
295,384	26,59
295,918	20,74
296,453	28,11
296,987	7,1
297,52	23,37
298,054	32,18
298,588	23,78
299,121	23,46
299,655	16,47
300,188	22
300,721	18,01
301,254	25,4
301,787	19,89
302,32	24,87
302,853	22,35
303,385	20,11
303,918	25,71
304,45	25
304,982	26,55
305,514	20,74
306,046	21,74
306,578	26,2
307,11	15,47
307,641	24,18
308,173	21,91
308,704	25
309,236	18,27
309,767	16,32
310,298	27,04
310,829	24,5
311,359	21,74
311,89	21,05
312,421	18,38
312,951	18,86
313,481	15,29
314,012	17,19
314,542	21,81
315,072	22,1
315,601	15,58
316,131	26,06
316,661	27,27
317,19	19,08
317,72	18,67
318,249	20,56
318,778	22,45
319,307	31,25
319,836	24,29
320,365	19,05
320,893	24,35
321,422	25,6
321,95	26,04
322,479	29,7
323,007	27,53
323,535	31,79
324,063	16,38
324,591	22,75
325,118	20,97
325,646	22,34
326,173	22,4
326,701	17,44
327,228	23,04
327,755	26,4
328,282	24,58
328,809	20
329,336	26,87
329,862	13,71
330,389	16,49
330,915	24,87
331,441	15,2
331,968	28,65
332,494	20,41
333,02	19,55
333,545	13,76
334,071	24,62
334,597	17,42
335,122	18,62
335,648	18,75
336,173	16,76
336,698	23,94
337,223	17,11
337,748	15,42
338,272	7,98
338,797	16,39
339,322	20
339,846	24,19
340,37	14,75
340,894	13,43
341,419	22,99
341,942	14,81
342,466	15,03
342,99	18,85
343,514	16,67
344,037	12,23
344,56	14,35
345,084	14,43
345,607	11,65
346,13	17,84
346,653	21,03
347,175	18,66
347,698	13,07
348,221	15,49
348,743	14,29
349,265	6,9
349,787	7,8
350,309	12,96
350,831	15,06
351,353	9,48
351,875	17
352,397	11,64
352,918	17,5
353,439	18,14
353,961	17,72
354,482	15,32
355,003	11,93
355,524	12,76
356,044	18,67
356,565	8,94
357,086	14,61
357,606	6,38
358,126	13,03
358,646	15,24
359,167	7,39
359,687	19,33
360,206	18,15
360,726	13,62
361,246	10,57
361,765	14,49
362,285	10,04
362,804	10,79
363,323	14,54
363,842	7,04
364,361	6,93
364,88	14,89
365,398	14,39
365,917	14,81
366,435	11,67
366,954	15,64
367,472	11,71
367,99	7,47
368,508	11,33
369,026	19,23
369,544	10,69
370,061	11,57
370,579	11,73
371,096	9,37
371,613	15,38
372,131	10,43
372,648	8,26
373,165	12,88
373,681	10,24
374,198	13,75
374,715	10,54
375,231	16,71
375,747	10,85
376,264	15,14
376,78	10,15
377,296	6,97
377,812	9,37
378,327	14,54
378,843	10,23
379,359	13,21
379,874	11,91
380,389	9,93
380,905	10,32
381,42	10
381,935	13,43
382,449	8,47
382,964	7,69
383,479	7,61
383,993	13,66
384,508	11,09
385,022	10,25
385,536	10,97
386,05	11,11
386,564	9,24
387,078	10,22
387,592	8,56
388,105	10,58
388,619	9,92
389,132	10
389,645	6,72
390,158	10,23
390,671	10,82
391,184	9,96
391,697	8,15
392,21	7,83
392,722	11,69
393,235	10,3
393,747	10,59
394,259	9,15
394,771	7,64
395,283	9,63
395,795	8,89
396,307	8,29
396,818	5,53
397,33	9,65
397,841	9,61
398,353	8,36
398,864	6,8
399,375	8,46
399,886	7,51
400,397	6,07
400,907	6,8
401,418	5,89
401,928	6,74
402,439	7,46
402,949	6,43
403,459	7,6
403,969	7,35
404,479	6,34
404,989	6,82
405,498	4,81
406,008	5,64
406,517	6,34
407,027	6,14
407,536	5,01
408,045	4,07
408,554	6,16
409,063	5,36
409,572	4,46
410,08	4,99
410,589	4,02
411,097	4,03
411,606	4,59
412,114	4
412,622	3,07
413,13	4,89
413,638	3,09
414,145	2,7
414,653	3,61
415,16	3,65
415,668	3,05
416,175	2,82
416,682	2,6
417,189	3,12
417,696	2,5
418,203	2,94
418,71	2,26
419,216	3,81
419,723	3,12
420,229	2,51
420,735	2,77
421,242	2,32
421,748	2,38
422,254	2,03
422,759	2,06
423,265	2,19
423,771	2,89
424,276	1,9
424,781	2,4
425,287	1,74
425,792	2,18
426,297	2,35
426,802	1,93
427,306	2,12
427,811	2,22
428,316	1,93
428,82	2,48
429,324	2,42
429,829	2,19
430,333	2,58
430,837	1,88
431,34	2,29
431,844	1,75
432,348	2,26
432,851	1,8
433,355	1,95
433,858	1,71
434,361	2,5
434,864	2,22
435,367	2,13
435,87	1,98
436,373	1,74
436,876	2,03
437,378	1,87
437,88	2,12
438,383	1,45
438,885	1,87
439,387	2,37
439,889	1,64
440,391	1,79
440,892	2,15
441,394	2
441,896	2,08
442,397	2,06
442,898	1,86
443,399	2,06
443,9	2,04
444,401	1,88
444,902	2,25
445,403	1,98
445,903	1,98
446,404	1,97
446,904	2,26
447,405	1,86
447,905	2,38
448,405	1,98
448,905	1,9
449,404	1,94
449,904	2,2
450,404	1,92
450,903	1,98
451,403	1,96
451,902	2,05
452,401	1,72
452,9	2,11
453,399	2,19
453,898	2
454,396	1,7
454,895	1,96
455,393	1,96
455,892	2,02
456,39	1,9
456,888	1,76
457,386	2,31
457,884	1,89
458,382	1,83
458,879	2,01
459,377	1,96
459,874	2,13
460,372	2,06
460,869	2,21
461,366	1,78
461,863	2,09
462,36	2,04
462,857	2,19
463,353	2,08
463,85	1,99
464,346	1,9
464,843	2,2
465,339	1,94
465,835	1,94
466,331	1,98
466,827	1,98
467,323	2,2
467,818	1,77
468,314	2,18
468,809	1,96
469,305	1,85
469,8	2
470,295	2,04
470,79	2,22
471,285	1,98
471,78	1,95
472,274	2,08
472,769	1,75
473,263	1,95
473,758	2
474,252	1,82
474,746	2,06
475,24	1,85
475,734	1,92
476,228	2,02
476,721	2,12
477,215	1,94
477,708	1,91
478,202	2,12
478,695	2,11
479,188	2,29
479,681	2,04
480,174	1,76
480,667	1,86
481,159	1,96
481,652	1,8
482,144	1,98
482,637	2,17
483,129	2,04
483,621	2,14
484,113	1,85
484,605	1,98
485,097	2,21
485,588	1,96
486,08	2,16
486,571	2,16
487,063	1,9
487,554	2,09
488,045	2,35
488,536	2,08
489,027	1,79
489,518	2,05
490,008	1,98
490,499	2,12
490,989	2,01
491,48	2,12
491,97	2,05
492,46	2,13
492,95	2,14
493,44	2,31
493,93	2,08
494,419	2,22
494,909	2,32
495,398	2,29
495,888	2,38
496,377	2,18
496,866	2,15
497,355	2,47
497,844	2,12
498,333	2,29
498,821	2,51
499,31	2,19
499,798	2,32
500,287	2,26
500,775	2,58
501,263	2,39
501,751	2,57
502,239	2,79
502,727	2,53
503,215	2,74
503,702	2,68
504,19	2,79
504,677	2,85
505,164	2,9
505,651	2,69
506,139	2,64
506,625	2,73
507,112	2,89
507,599	2,89
508,086	3,07
508,572	3,11
509,058	2,9
509,545	3,23
510,031	3,34
510,517	3,2
511,003	3,37
511,489	3,46
511,974	3,44
512,46	3,61
512,946	3,52
513,431	3,64
513,916	3,79
514,401	3,71
514,887	3,97
515,371	3,77
515,856	3,89
516,341	3,77
516,826	3,84
517,31	4,22
517,795	4,37
518,279	4,38
518,763	4,43
519,247	4,61
519,731	4,88
520,215	4,77
520,699	4,9
521,182	4,93
521,666	4,76
522,149	4,94
522,633	5,1
523,116	5,12
523,599	5,35
524,082	5,26
524,565	5,47
525,048	5,46
525,53	5,52
526,013	5,68
526,495	5,55
526,978	5,49
527,46	5,82
527,942	5,74
528,424	5,89
528,906	5,79
529,388	6,07
529,87	6,11
530,351	6,1
530,833	6,21
531,314	6,39
531,795	6,27
532,277	6,19
532,758	6,27
533,238	6,41
533,719	6,33
534,2	6,53
534,681	6,47
535,161	6,41
535,642	6,66
536,122	6,8
536,602	6,71
537,082	6,51
537,562	6,7
538,042	6,68
538,522	6,66
539,001	6,82
539,481	6,71
539,96	6,6
540,44	6,85
540,919	6,88
541,398	6,81
541,877	6,71
542,356	6,97
542,835	6,7
543,313	6,92
543,792	6,64
544,27	7,01
544,749	6,76
545,227	6,89
545,705	6,97
546,183	6,95
546,661	6,81
547,139	6,88
547,616	6,96
548,094	6,94
548,571	6,95
549,049	6,99
549,526	7,04
550,003	6,99
550,48	7,07
550,957	6,9
551,434	6,99
551,911	7,15
552,387	6,81
552,864	6,97
553,34	6,98
553,817	7,22
554,293	7,12
554,769	6,98
555,245	7,17
555,721	7,16
556,197	6,98
556,672	7,18
557,148	7,16
557,623	6,95
558,099	7,06
558,574	7,08
559,049	6,93
559,524	6,73
559,999	7,09
560,474	7,05
560,948	6,87
561,423	6,63
561,897	6,83
562,372	6,85
562,846	6,87
563,32	6,83
563,794	6,93
564,268	6,76
564,742	6,65
565,216	6,72
565,69	6,77
566,163	6,58
566,636	6,63
567,11	6,41
567,583	6,54
568,056	6,39
568,529	6,43
569,002	6,34
569,475	6,29
569,947	6,26
570,42	6,38
570,892	6,23
571,365	6,14
571,837	5,98
572,309	5,94
572,781	6,06
573,253	5,97
573,725	5,96
574,197	5,85
574,668	5,87
575,14	5,88
575,611	5,71
576,082	5,61
576,554	5,7
577,025	5,64
577,496	5,57
577,967	5,41
578,437	5,29
578,908	5,55
579,379	5,54
579,849	5,14
580,319	5,24
580,79	5,22
581,26	5,16
581,73	5,31
582,2	5,24
582,669	5,13
583,139	5,17
583,609	5,17
584,078	5,14
584,548	5,11
585,017	5,11
585,486	4,89
585,955	5,05
586,424	5,07
586,893	4,91
587,362	4,78
587,83	5,05
588,299	4,96
588,767	4,86
589,236	4,73
589,704	4,86
590,172	4,91
590,64	4,82
591,108	4,7
591,576	4,74
592,043	4,71
592,511	4,74
592,978	4,72
593,446	4,71
593,913	4,76
594,38	4,51
594,847	4,73
595,314	4,69
595,781	4,64
596,248	4,63
596,715	4,69
597,181	4,6
597,647	4,62
598,114	4,36
598,58	4,45
599,046	4,5
599,512	4,53
599,978	4,54
600,444	4,56
600,91	4,62
601,375	4,54
601,841	4,43
602,306	4,42
602,771	4,35
603,236	4,37
603,702	4,32
604,167	4,58
604,631	4,46
605,096	4,46
605,561	4,36
606,025	4,43
606,49	4,38
606,954	4,31
607,418	4,35
607,882	4,29
608,347	4,45
608,81	4,39
609,274	4,28
609,738	4,28
610,202	4,39
610,665	4,13
611,128	4,13
611,592	4,05
612,055	4,2
612,518	4,25
612,981	4,12
613,444	4,05
613,907	4,15
614,369	3,94
614,832	4,04
615,294	4,1
615,757	3,93
616,219	3,91
616,681	4,01
617,143	3,92
617,605	3,78
618,067	3,82
618,529	3,89
618,99	3,8
619,452	3,81
619,913	3,77
620,375	3,91
620,836	3,67
621,297	3,9
621,758	3,68
622,219	3,78
622,68	3,83
623,14	3,69
623,601	3,76
624,061	3,73
624,522	3,63
624,982	3,68
625,442	3,66
625,902	3,72
626,362	3,62
626,822	3,79
627,282	3,65
627,742	3,58
628,201	3,75
628,661	3,7
629,12	3,55
629,579	3,54
630,038	3,6
630,497	3,57
630,956	3,54
631,415	3,51
631,874	3,58
632,332	3,61
632,791	3,61
633,249	3,55
633,708	3,52
634,166	3,61
634,624	3,41
635,082	3,42
635,54	3,44
635,998	3,44
636,455	3,38
636,913	3,39
637,37	3,42
637,828	3,3
638,285	3,41
638,742	3,17
639,199	3,3
639,656	3,25
640,113	3,31
640,57	3,08
641,027	3,24
641,483	3,14
641,94	3,09
642,396	3,13
642,852	3,08
643,309	3,02
643,765	3,06
644,221	2,9
644,676	2,93
645,132	2,85
645,588	2,9
646,043	2,87
646,499	2,92
646,954	2,76
647,409	2,73
647,864	2,78
648,319	2,75
648,774	2,67
649,229	2,7
649,684	2,7
650,139	2,69
650,593	2,72
651,047	2,69
651,502	2,52
651,956	2,58
652,41	2,69
652,864	2,59
653,318	2,58
653,772	2,59
654,225	2,58
654,679	2,56
655,133	2,56
655,586	2,51
656,039	2,58
656,492	2,48
656,946	2,53
657,399	2,43
657,851	2,53
658,304	2,52
658,757	2,42
659,209	2,5
659,662	2,41
660,114	2,38
660,567	2,47
661,019	2,33
661,471	2,37
661,923	2,33
662,375	2,32
662,826	2,33
663,278	2,24
663,73	2,23
664,181	2,33
664,632	2,26
665,084	2,27
665,535	2,23
665,986	2,23
666,437	2,25
666,888	2,19
667,338	2,23
667,789	2,21
668,24	2,16
668,69	2,19
669,14	2,23
669,591	2,25
670,041	2,21
670,491	2,25
670,941	2,31
671,391	2,32
671,84	2,17
672,29	2,25
672,74	2,23
673,189	2,21
673,638	2,34
674,088	2,3
674,537	2,33
674,986	2,39
675,435	2,43
675,883	2,4
676,332	2,36
676,781	2,46
677,229	2,51
677,678	2,45
678,126	2,47
678,574	2,55
679,022	2,6
679,47	2,71
679,918	2,58
680,366	2,66
680,814	2,7
681,261	2,79
681,709	2,8
682,156	2,78
682,604	2,84
683,051	2,84
683,498	2,86
683,945	2,95
684,392	2,93
684,839	2,99
685,286	3,02
685,732	3,02
686,179	3,15
686,625	3,12
687,071	3,24
687,518	3,21
687,964	3,33
688,41	3,3
688,856	3,51
689,301	3,42
689,747	3,51
690,193	3,6
690,638	3,63
691,084	3,77
691,529	3,76
691,974	3,99
692,419	4,03
692,864	4,12
693,309	4,21
693,754	4,32
694,199	4,46
694,643	4,56
695,088	4,79
695,532	4,81
695,977	4,87
696,421	5,1
696,865	5,16
697,309	5,4
697,753	5,45
698,197	5,62
698,64	5,92
699,084	6
699,527	6,07
699,971	6,21
700,414	6,44
700,857	6,54
701,3	6,76
701,743	6,71
702,186	6,88
702,629	7,09
703,072	7,25
703,515	7,53
703,957	7,59
704,399	7,63
704,842	7,77
705,284	8,06
705,726	8,08
706,168	8,14
706,61	8,48
707,052	8,52
707,494	8,76
707,935	8,82
708,377	8,99
708,818	9,11
709,26	9,24
709,701	9,26
710,142	9,51
710,583	9,58
711,024	9,83
711,465	9,83
711,905	10,04
712,346	10,29
712,787	10,4
713,227	10,37
713,667	10,68
714,108	10,73
714,548	10,89
714,988	10,94
715,428	11,16
715,868	11,34
716,307	11,39
716,747	11,42
717,186	11,59
717,626	11,82
718,065	11,9
718,504	11,96
718,944	12,1
719,383	12,24
719,822	12,34
720,261	12,43
720,699	12,38
721,138	12,46
721,576	12,9
722,015	12,71
722,453	12,89
722,892	12,93
723,33	13,31
723,768	13,18
724,206	13,53
724,644	13,49
725,081	13,77
725,519	13,78
725,957	13,66
726,394	13,82
726,832	13,95
727,269	14,22
727,706	14,19
728,143	14,28
728,58	14,01
729,017	14,2
729,454	14,51
729,89	14,46
730,327	14,59
730,764	14,55
731,2	14,55
731,636	14,74
732,072	14,8
732,509	14,9
732,945	15,03
733,38	14,92
733,816	14,93
734,252	14,86
734,688	14,96
735,123	15,19
735,559	15,33
735,994	15,29
736,429	15,17
736,864	15,29
737,299	15,28
737,734	15,42
738,169	15,4
738,604	15,35
739,038	15,38
739,473	15,39
739,907	15,59
740,342	15,51
740,776	15,55
741,21	15,38
741,644	15,47
742,078	15,58
742,512	15,48
742,946	15,62
743,379	15,6
743,813	15,7
744,246	15,35
744,68	15,57
745,113	15,68
745,546	15,62
745,979	15,67
746,412	15,53
746,845	15,78
747,278	15,72
747,711	15,56
748,143	15,81
748,576	15,73
749,008	15,82
749,441	15,76
749,873	15,52
750,305	15,75
750,737	15,74
751,169	15,66
751,601	15,42
752,032	15,62
752,464	15,64
752,896	15,49
753,327	15,61
753,758	15,58
754,19	15,57
754,621	15,59
755,052	15,51
755,483	15,62
755,914	15,37
756,344	15,64
756,775	15,43
757,206	15,33
757,636	15,38
758,066	15,4
758,497	15,46
758,927	15,5
759,357	15,29
759,787	15,4
760,217	15,37
760,647	15,35
761,076	15,33
761,506	15,37
761,935	15,34
762,365	15,45
762,794	15,43
763,223	15,29
763,653	15,23
764,082	15,38
764,51	15,23
764,939	15,3
765,368	15,43
765,797	15,27
766,225	15,4
766,654	15,2
767,082	15,2
767,51	15,14
767,938	15,17
768,367	15,23
768,795	15,17
769,222	15,22
769,65	15,29
770,078	15,01
770,505	15,11
770,933	15,05
771,36	15,28
771,788	15,14
772,215	15,23
772,642	15,25
773,069	14,97
773,496	15,1
773,923	15,1
774,349	15,06
774,776	15,31
775,203	15,04
775,629	15,15
776,055	14,99
776,482	15,19
776,908	14,96
777,334	15,15
777,76	15,02
778,186	15
778,611	15,05
779,037	14,99
779,463	15,1
779,888	14,87
780,314	14,93
780,739	14,97
781,164	15,27
781,589	14,91
782,014	14,82
782,439	14,9
782,864	15,08
783,289	14,94
783,713	15,05
784,138	14,84
784,562	14,91
784,987	15,11
785,411	15
785,835	14,91
786,259	14,91
786,683	14,83
787,107	14,94
787,531	15,04
787,954	14,89
788,378	14,83
788,802	14,93
789,225	14,81
789,648	14,88
790,071	14,9
790,495	14,88
790,918	15,04
791,34	14,96
791,763	14,84
792,186	14,96
792,609	14,76
793,031	14,77
793,454	14,8
793,876	14,85
794,298	14,84
794,721	14,92
795,143	14,9
795,565	14,87
795,986	15,03
796,408	14,62
796,83	15
797,252	14,78
797,673	14,88
798,094	14,57
798,516	14,94
798,937	14,83
799,358	14,99
799,779	14,76
800,2	14,75
800,621	14,72
801,042	14,86
801,462	14,76
801,883	14,92
802,303	14,73
802,724	14,66
803,144	14,84
803,564	14,72
803,984	14,73
804,404	14,86
804,824	14,77
805,244	14,72
805,664	14,68
806,084	14,6
806,503	14,86
806,923	14,96
807,342	14,86
807,761	14,68
808,18	14,9
808,599	14,74
809,018	14,61
809,437	14,7
809,856	14,73
810,275	14,61
810,693	14,86
811,112	14,71
811,53	14,72
811,949	14,94
812,367	14,95
812,785	14,66
813,203	14,93
813,621	14,78
814,039	14,72
814,457	14,71
814,874	14,69
815,292	14,71
815,709	14,79
816,127	14,56
816,544	14,51
816,961	14,59
817,378	14,63
817,795	14,7
818,212	14,67
818,629	14,97
819,046	14,72
819,462	14,67
819,879	14,74
820,295	14,7
820,712	14,53
821,128	14,64
821,544	14,73
821,96	14,62
822,376	14,83
822,792	14,7
823,208	14,69
823,624	14,76
824,039	14,47
824,455	14,66
824,87	14,61
825,286	14,7
825,701	14,6
826,116	14,59
826,531	14,67
826,946	14,66
827,361	14,59
827,776	14,63
828,19	14,69
828,605	14,77
829,02	14,71
829,434	14,55
829,848	14,68
830,263	14,74
830,677	14,46
831,091	14,64
831,505	14,79
831,919	14,54
832,332	14,54
832,746	14,62
833,16	14,57
833,573	14,6
833,987	14,51
834,4	14,62
834,813	14,5
835,226	14,62
835,639	14,43
836,052	14,77
836,465	14,48
836,878	14,58
837,29	14,74
837,703	14,65
838,116	14,32
838,528	14,45
838,94	14,56
839,352	14,84
839,765	14,52
840,177	14,84
840,589	14,57
841	14,41
841,412	14,61
841,824	14,69
842,235	14,76
842,647	14,73
843,058	14,61
843,47	14,61
843,881	14,49
844,292	14,69
844,703	14,57
845,114	14,28
845,525	14,48
845,935	14,55
846,346	14,69
846,757	14,55
847,167	14,44
847,577	14,53
847,988	14,39
848,398	14,3
848,808	14,62
849,218	14,57
849,628	14,54
850,038	14,53
850,448	14,59
850,857	14,44
851,267	14,68
851,676	14,77
852,086	14,7
852,495	14,62
852,904	14,72
853,313	14,47
853,722	14,4
854,131	14,7
854,54	14,51
854,949	14,21
855,357	14,46
855,766	14,48
856,174	14,36
856,583	14,39
856,991	14,6
857,399	14,43
857,807	14,52
858,215	14,42
858,623	14,66
859,031	14,36
859,439	14,43
859,846	14,43
860,254	14,5
860,661	14,49
861,069	14,59
861,476	14,48
861,883	14,62
862,29	14,48
862,697	14,59
863,104	14,53
863,511	14,42
863,918	14,52
864,325	14,39
864,731	14,46
865,138	14,51
865,544	14,43
865,95	14,56
866,357	14,42
866,763	14,31
867,169	14,59
867,575	14,39
867,98	14,41
868,386	14,41
868,792	14,5
869,197	14,32
869,603	14,5
870,008	14,37
870,414	14,53
870,819	14,43
871,224	14,53
871,629	14,36
872,034	14,3
872,439	14,37
872,844	14,15
873,248	14,33
873,653	14,41
874,057	14,42
874,462	14,76
874,866	14,43
875,27	14,5
875,674	14,36
876,078	14,44
876,482	14,16
876,886	14,48
877,29	14,57
877,694	14,55
878,097	14,54
878,501	14,49
878,904	14,36
879,308	14,52
879,711	14,29
880,114	14,61
880,517	14,27
880,92	14,5
881,323	14,31
881,726	14,31
882,128	14,56
882,531	14,39
882,934	14,37
883,336	14,5
883,738	14,31
884,141	14,53
884,543	14,49
884,945	14,26
885,347	14,5
885,749	14,48
886,151	14,38
886,552	14,61
886,954	14,46
887,355	14,4
887,757	14,6
888,158	14,44
888,56	14,46
888,961	14,39
889,362	14,37
889,763	14,37
890,164	14,47
890,565	14,47
890,965	14,48
891,366	14,42
891,767	14,4
892,167	14,47
892,567	14,41
892,968	14,44
893,368	14,3
893,768	14,32
894,168	14,44
894,568	14,4
894,968	14,51
895,368	14,4
895,767	14,25
896,167	14,29
896,566	14,36
896,966	14,19
897,365	14,46
897,764	14,29
898,164	14,35
898,563	14,38
898,962	14,53
899,361	14,23
899,759	14,37
900,158	14,46
900,557	14,2
900,955	14,13
901,354	14,48
901,752	14,19
902,15	14,27
902,548	14,49
902,947	14,32
903,345	14,56
903,742	14,39
904,14	14,46
904,538	14,54
904,936	14,13
905,333	14,37
905,731	14,3
906,128	14,3
906,525	14,41
906,923	14,31
907,32	14,31
907,717	14,59
908,114	14,35
908,511	14,44
908,907	14,35
909,304	14,31
909,701	14,32
910,097	14,41
910,494	14,3
910,89	14,15
911,286	14,46
911,682	14,49
912,078	14,42
912,474	14,5
912,87	14,16
913,266	14,4
913,662	14,33
914,058	14,29
914,453	14,42
914,849	14,23
915,244	14,29
915,639	14,42
916,034	14,52
916,43	14,27
916,825	14,23
917,22	14,08
917,614	14,55
918,009	14,32
918,404	14,49
918,798	14,14
919,193	14,27
919,587	14,16
919,982	14,29
920,376	14,39
920,77	14,15
921,164	14,12
921,558	14,22
921,952	14,18
922,346	14,56
922,74	14,46
923,133	14,37
923,527	14,31
923,92	14,27
924,314	14,15
924,707	14,23
925,1	14,39
925,493	14,38
925,886	14,2
926,279	14,22
926,672	14,46
927,065	14,13
927,457	14,27
927,85	14,31
928,243	14,43
928,635	14,36
929,027	14,07
929,42	14,16
929,812	14,11
930,204	14,44
930,596	14,13
930,988	14,34
931,379	14,27
931,771	14,51
932,163	14,28
932,554	14,27
932,946	14,35
933,337	14,6
933,729	14,22
934,12	14,29
934,511	14,09
934,902	14,04
935,293	14,33
935,684	14,17
936,075	14,59
936,465	13,99
936,856	14,23
937,246	14,35
937,637	14,44
938,027	14,5
938,417	14,19
938,808	14,17
939,198	14,04
939,588	14
939,978	14,33
940,368	13,97
940,757	14,09
941,147	14,17
941,537	14,26
941,926	14,12
942,315	14,49
942,705	14,36
943,094	14,33
943,483	14,5
943,872	14,44
944,261	14,42
944,65	14,27
945,039	14,56
945,428	13,9
945,816	14,17
946,205	14,09
946,593	14,51
946,982	14,14
947,37	14,57
947,758	14,37
948,146	13,72
948,534	14,83
948,922	14,47
949,31	13,45
949,698	14,1
950,086	13,96
950,473	14,3
950,861	14,27
951,248	13,9
951,636	14,15
952,023	14,28
952,41	13,83
952,797	13,6
953,184	13,93
953,571	14,15
953,958	14,64
954,345	14,41
954,731	14,33
955,118	13,76
955,505	13,96
955,891	13,8
956,277	13,88
956,664	14,21
957,05	14,24
957,436	14,16
957,822	14
958,208	14,27
958,594	13,95
958,979	13,98
959,365	13,76
959,751	14,15
960,136	14,12
960,522	13,99
960,907	14,22
961,292	14,23
961,677	14,13
962,062	13,98
962,447	14,05
962,832	13,74
963,217	13,73
963,602	13,88
963,986	14,06
964,371	13,93
964,756	13,83
965,14	14,07
965,524	13,85
965,908	14,29
966,293	13,91
966,677	14,18
967,061	14,12
967,445	13,93
967,828	13,9
968,212	13,76
968,596	14,06
968,979	13,79
969,363	13,68
969,746	13,83
970,129	14,23
970,513	13,89
970,896	13,88
971,279	14,27
971,662	14,13
972,045	13,99
972,428	13,82
972,81	13,91
973,193	13,92
973,575	13,63
973,958	13,94
974,34	14,28
974,723	13,76
975,105	14,13
975,487	13,75
975,869	14,03
976,251	13,9
976,633	14,05
977,015	14,06
977,396	13,85
977,778	13,7
978,16	14,02
978,541	13,78
978,922	14,29
979,304	13,93
979,685	13,97
980,066	13,93
980,447	13,8
980,828	13,43
981,209	13,94
981,59	13,9
981,97	13,82
982,351	13,8
982,732	14,04
983,112	14,07
983,493	13,94
983,873	13,92
984,253	13,92
984,633	13,95
985,013	13,86
985,393	13,83
985,773	14
986,153	14,08
986,533	13,81
986,912	13,77
987,292	13,98
987,671	13,98
988,051	13,99
988,43	13,98
988,809	14,06
989,188	13,93
989,567	13,82
989,946	13,84
990,325	13,86
990,704	13,94
991,083	13,94
991,461	13,93
991,84	14,22
992,218	13,77
992,597	13,77
992,975	14,01
993,353	14,27
993,732	14,17
994,11	14,01
994,488	13,91
994,866	13,69
995,243	14,05
995,621	14,16
995,999	13,71
996,376	13,87
996,754	14,12
997,131	13,97
997,509	14,18
997,886	14,06
998,263	13,87
998,64	13,76
999,017	13,79
999,394	14,27
999,771	13,5
1000,148	13,88
1000,524	14,01
1000,901	13,97
1001,277	13,82
1001,654	13,86
1002,03	14,19
1002,406	13,96
1002,783	14,34
1003,159	13,95
1003,535	14,03
1003,911	14,06
1004,286	13,68
1004,662	13,75
1005,038	14,05
1005,414	13,91
1005,789	14,13
1006,164	14,07
1006,54	13,91
1006,915	13,66
1007,29	13,88
1007,665	14,25
1008,04	13,85
1008,415	13,95
1008,79	14,49
1009,165	13,93
1009,54	14,37
1009,914	14,12
1010,289	14,06
1010,663	13,97
1011,038	14,08
1011,412	13,51
1011,786	14,19
1012,16	13,73
1012,535	13,99
1012,909	14,2
1013,282	13,95
1013,656	14,06
1014,03	14,09
1014,404	13,62
1014,777	13,98
1015,151	14,15
1015,524	14,35
1015,897	13,85
1016,271	13,8
1016,644	13,33
1017,017	14,02
1017,39	14,26
1017,763	13,81
1018,136	14,11
1018,508	13,51
1018,881	13,93
1019,254	13,96
1019,626	14,34
1019,999	13,95
1020,371	14,28
1020,743	13,86
1021,116	13,85
1021,488	14,15
1021,86	14,02
1022,232	14,11
1022,604	13,91
1022,975	13,83
1023,347	13,96
1023,719	13,85
1024,09	14,15
1024,462	14,15
1024,833	14,18
1025,204	13,87
1025,576	14,36
1025,947	14,14
1026,318	13,88
1026,689	13,95
1027,06	14,33
1027,431	14,14
1027,801	13,8
1028,172	14,14
1028,543	14
1028,913	14,29
1029,284	13,99
1029,654	13,91
1030,024	13,63
1030,394	14
1030,764	14,22
1031,135	13,88
1031,504	14,24
1031,874	14,26
1032,244	14,31
1032,614	14,08
1032,983	14,15
1033,353	14,09
1033,722	14,05
1034,092	14,34
1034,461	14,54
1034,83	14,31
1035,2	13,71
1035,569	14,38
1035,938	14,76
1036,307	14,16
1036,675	14,25
1037,044	13,72
1037,413	14,36
1037,781	14,07
1038,15	14,3
1038,518	13,97
1038,887	14,33
1039,255	14,55
1039,623	13,82
1039,991	14,68
1040,359	13,58
1040,727	13,71
1041,095	13,96
1041,463	14,46
1041,831	14,17
1042,198	14,26
1042,566	14,07
1042,933	14,17
1043,301	13,91
1043,668	14,42
1044,035	13,72
1044,402	14,62
1044,77	14,11
1045,137	14,78
1045,503	14,65
1045,87	14
1046,237	13,66
1046,604	13,83
1046,97	14,89
1047,337	13,95
1047,703	14,1
1048,07	14,66
1048,436	14,3
1048,802	14,08
1049,168	14,28
1049,534	14,2
1049,9	13,92
1050,266	14,05
1050,632	14,53
1050,998	14,32
1051,364	14,49
1051,729	14,48
1052,095	13,8
1052,46	14,53
1052,825	14,2
1053,191	14,53
1053,556	14,45
1053,921	14,12
1054,286	14,24
1054,651	14,33
1055,016	13,72
1055,381	13,96
1055,745	14,43
1056,11	13,93
1056,475	14,5
1056,839	14,42
1057,203	13,71
1057,568	14,28
1057,932	14,66
1058,296	14,72
1058,66	13,88
1059,024	13,96
1059,388	14,1
1059,752	14,72
1060,116	14,81
1060,48	14,36
1060,843	14,71
1061,207	13,76
1061,57	14,03
1061,934	14,86
1062,297	14,23
1062,66	13,64
1063,023	14,46
1063,386	14,76
1063,749	14,51
1064,112	13,86
1064,475	14,61
1064,838	14,48
1065,201	14,72
1065,563	15,16
1065,926	14,56
1066,288	14,09
1066,651	14,8
1067,013	14,07
1067,375	14,95
1067,737	14,34
1068,099	14,04
1068,461	14,1
1068,823	14,87
1069,185	14,29
1069,547	14,93
1069,909	14,3
1070,27	13,73
1070,632	14
1070,993	14,28
1071,355	14,64
1071,716	14,52
1072,077	14,37
1072,438	14,31
1072,799	13,8
1073,16	14,02
1073,521	13,97
1073,882	14,62
1074,243	13,69
1074,603	14,29
1074,964	13,83
1075,325	14,05
1075,685	14,35
1076,045	13,48
1076,406	13,49
1076,766	14,59
1077,126	14,11
1077,486	14,37
1077,846	15,47
1078,206	14,88
1078,566	14,29
1078,925	14,3
1079,285	15,3
1079,645	15,63
1080,004	13,85
1080,364	15
1080,723	13,91
1081,082	14,92
1081,442	13,95
1081,801	14,08
1082,16	13,47
1082,519	15,56
1082,878	14,35
1083,237	14,62
1083,595	13,88
1083,954	14,48
1084,313	14,14
1084,671	14,85
1085,03	14,08
1085,388	16,16
1085,746	14,59
1086,104	14,85
1086,463	15,1
1086,821	14,63
1087,179	13,35
1087,537	13,57
1087,894	15,34
1088,252	14,52
1088,61	15,32
1088,967	15,49
1089,325	15,62
1089,682	14,8
1090,04	15,63
1090,397	15,29
1090,754	15,95
1091,111	14,62
1091,469	15,85
1091,826	13,54
1092,182	14,7
1092,539	14,68
1092,896	14,44
1093,253	15,15
1093,609	14,2
1093,966	13,72
1094,322	15,14
1094,679	16,54
1095,035	14,01
1095,391	14,2
1095,748	14,35
1096,104	14,54
1096,46	14,89
1096,816	15,15
1097,171	15,9
1097,527	14,68
1097,883	14,9
1098,239	15,05
1098,594	14,66
1098,95	15,6
1099,305	15,88
1099,66	16,11
1100,016	13,75
1100,371	12,54
1100,726	13,91
1101,081	13,77
1101,436	16,39
1101,791	15,12
1102,146	14,86
1102,5	14,85
1102,855	14,78
1103,21	15,11
1103,564	15,72
1103,918	13
1104,273	14,05
1104,627	14,16
1104,981	15,38
1105,335	16,79
1105,69	16,73
1106,043	16,25
1106,397	15,72
1106,751	15,53
1107,105	15,18
1107,459	16,23
1107,812	15,87
1108,166	17,36
1108,519	16,07
1108,873	14,13
1109,226	15,97
1109,579	16,38
1109,932	16,31
1110,285	16,1
1110,638	14,35
1110,991	14,5
1111,344	15,49
1111,697	17,56
1112,05	12,82
1112,402	13,97
1112,755	15,03
1113,107	13,58
1113,46	15,18
1113,812	15,76
1114,164	18,42
1114,517	18,81
1114,869	30
1115,221	24,59
1115,573	16,92
1115,924	32,39
