Data from A6__Relative__3__00007.txt Node

Date: Thu Feb 01 16:14:47 CET 2024
User: diatiterra
Spectrometer: HDX00911
Trigger mode: 0
Integration Time (sec): 6,000000E-3
Scans to average: 2
Nonlinearity correction enabled: false
Boxcar width: 0
Storing dark spectrum: false
XAxis mode: Wavelengths
Number of Pixels in Spectrum: 2068
>>>>>Begin Spectral Data<<<<<
194,468	76,92
195,025	58,33
195,581	60,61
196,138	51,47
196,694	40,66
197,251	47,62
197,807	45,93
198,363	40,24
198,919	39,13
199,474	35,67
200,03	43,18
200,586	29,11
201,141	30,41
201,696	35,84
202,251	32,04
202,806	31,03
203,361	42,08
203,916	38,38
204,471	33,15
205,025	37,3
205,58	34,68
206,134	39,36
206,688	41,36
207,242	37,79
207,796	33,84
208,35	36,05
208,904	40,11
209,457	38,82
210,011	34,97
210,564	44,09
211,117	43,14
211,67	37,08
212,223	40,72
212,776	34,22
213,329	39,04
213,881	34,72
214,434	39
214,986	45,18
215,538	42,93
216,09	41,15
216,642	37,35
217,194	41,18
217,746	33,14
218,297	36,67
218,849	43,6
219,4	22,22
219,951	40
220,502	38,46
221,053	27,98
221,604	43,79
222,155	35,83
222,705	35,09
223,256	38,76
223,806	42,29
224,356	26,29
224,906	44,24
225,456	37,43
226,006	30,6
226,556	39,46
227,106	29,27
227,655	39,79
228,204	36,16
228,754	44,25
229,303	31,76
229,852	40
230,401	36,42
230,949	42,37
231,498	40,96
232,047	40,56
232,595	33,33
233,143	35,26
233,691	33,52
234,239	38,8
234,787	33,72
235,335	44,19
235,883	40
236,43	40,65
236,978	40,96
237,525	29,65
238,072	33,89
238,619	39,02
239,166	38,73
239,713	36,87
240,26	46,2
240,806	36,81
241,353	31,98
241,899	40,66
242,445	44,38
242,991	36,22
243,537	37,25
244,083	34,62
244,629	34
245,174	35,06
245,72	36,87
246,265	34,03
246,81	39,77
247,355	50
247,9	34,71
248,445	40,13
248,99	36,67
249,534	37,08
250,079	45,78
250,623	32,61
251,168	39,08
251,712	41,18
252,256	44,72
252,8	32,77
253,343	41,76
253,887	41,53
254,43	36,93
254,974	40,78
255,517	33,33
256,06	43,18
256,603	48,31
257,146	29,83
257,689	32,28
258,232	37,57
258,774	44,05
259,317	31,87
259,859	36,13
260,401	37,08
260,943	33,12
261,485	50,27
262,027	34,92
262,569	43,05
263,11	29,38
263,652	48,35
264,193	30,11
264,734	34,5
265,275	34,9
265,816	41,08
266,357	38,62
266,898	26,26
267,438	37,34
267,979	27,27
268,519	38,1
269,059	38,55
269,6	47,54
270,14	30,1
270,68	41,1
271,219	32,76
271,759	39,1
272,298	38,38
272,838	33,92
273,377	43,58
273,916	41,61
274,455	47,18
274,994	40
275,533	44,31
276,072	47,31
276,61	49,11
277,149	37,06
277,687	41,57
278,225	48,82
278,763	37,57
279,301	43,62
279,839	37,23
280,377	39,75
280,914	44,85
281,452	32,4
281,989	39,41
282,526	46,2
283,064	31,87
283,601	36,52
284,137	50,92
284,674	35,96
285,211	39,25
285,747	47,74
286,284	37,06
286,82	43,75
287,356	35,05
287,892	44,2
288,428	41,95
288,964	42,47
289,5	42,77
290,035	44,89
290,571	41,8
291,106	41,01
291,641	38,37
292,176	44,62
292,711	41,28
293,246	36,41
293,781	40,88
294,315	36,73
294,85	35,48
295,384	53,76
295,918	31,38
296,453	45,41
296,987	32,24
297,52	40,76
298,054	39,08
298,588	46,34
299,121	36,87
299,655	40
300,188	47,33
300,721	40,99
301,254	48,15
301,787	46,77
302,32	40,41
302,853	39,66
303,385	32,07
303,918	40,57
304,45	37,76
304,982	44,63
305,514	41,49
306,046	43,48
306,578	46,52
307,11	38,67
307,641	43,96
308,173	33,15
308,704	42,05
309,236	36,55
309,767	40,53
310,298	32,08
310,829	43,5
311,359	36,71
311,89	40,94
312,421	32,43
312,951	36
313,481	34,12
314,012	38,02
314,542	39,36
315,072	42,54
315,601	34,42
316,131	39,36
316,661	42,05
317,19	36,99
317,72	41,57
318,249	37,22
318,778	36,05
319,307	46,88
319,836	43,5
320,365	37,04
320,893	41,45
321,422	41,07
321,95	36,46
322,479	48,48
323,007	37,64
323,535	34,68
324,063	38,98
324,591	42,33
325,118	35,48
325,646	43,62
326,173	41,53
326,701	40,51
327,228	37,17
327,755	45,69
328,282	37,43
328,809	36,47
329,336	39,8
329,862	39,43
330,389	32,99
330,915	40,41
331,441	37,43
331,968	52,25
332,494	35,2
333,02	37,99
333,545	28,57
334,071	31,28
334,597	33,15
335,122	28,19
335,648	33,17
336,173	36,22
336,698	32,98
337,223	35,29
337,748	29,35
338,272	22,87
338,797	36,61
339,322	32,97
339,846	34,41
340,37	32,24
340,894	28,86
341,419	33,33
341,942	30,16
342,466	36,27
342,99	29,32
343,514	27,94
344,037	27,66
344,56	35,41
345,084	36,32
345,607	30,58
346,13	34,74
346,653	34,11
347,175	29,67
347,698	35,18
348,221	30,99
348,743	31,51
349,265	24,63
349,787	20
350,309	31,58
350,831	23,85
351,353	20,85
351,875	31,58
352,397	24,57
352,918	36,25
353,439	31,22
353,961	31,89
354,482	32,34
355,003	31,69
355,524	25,1
356,044	26,97
356,565	25,61
357,086	23,22
357,606	23,4
358,126	26,44
358,646	27,14
359,167	26,96
359,687	34,94
360,206	32,22
360,726	26,46
361,246	23,77
361,765	27,17
362,285	31,6
362,804	28,42
363,323	25,18
363,842	25
364,361	24,09
364,88	24,27
365,398	26,67
365,917	27,16
366,435	23,67
366,954	26,71
367,472	24,05
367,99	23,7
368,508	27,67
369,026	26,6
369,544	21,38
370,061	23,15
370,579	27,16
371,096	25,9
371,613	25,93
372,131	25,8
372,648	21,37
373,165	19,73
373,681	16,87
374,198	24,64
374,715	24,22
375,231	27,09
375,747	21,16
376,264	25,07
376,78	23,1
377,296	16,59
377,812	21,27
378,327	23,56
378,843	20,72
379,359	21,46
379,874	21,84
380,389	21,22
380,905	21,29
381,42	22
381,935	18,76
382,449	18,18
382,964	19,13
383,479	19,96
383,993	21,12
384,508	21,24
385,022	19,34
385,536	20,35
386,05	24,11
386,564	18,47
387,078	22,94
387,592	18,15
388,105	17,19
388,619	19,2
389,132	18,28
389,645	16,32
390,158	18,13
390,671	19,97
391,184	17,25
391,697	17,42
392,21	15,38
392,722	18,46
393,235	18,89
393,747	17,78
394,259	17,04
394,771	19,37
395,283	17,81
395,795	18,56
396,307	13,69
396,818	15,17
397,33	16,99
397,841	18
398,353	15,52
398,864	15,41
399,375	14,81
399,886	15,89
400,397	15,59
400,907	14,09
401,418	13,5
401,928	13,58
402,439	13,54
402,949	12,96
403,459	13,25
403,969	13,2
404,479	13,27
404,989	11,97
405,498	10,54
406,008	12,15
406,517	10,7
407,027	10,23
407,536	10,81
408,045	10,76
408,554	10,67
409,063	8,8
409,572	8,68
410,08	10,1
410,589	8,34
411,097	8,12
411,606	7,87
412,114	8,2
412,622	8,12
413,13	8,02
413,638	7,04
414,145	6,21
414,653	6,74
415,16	8,13
415,668	7,27
416,175	6,23
416,682	6,15
417,189	5,7
417,696	5,73
418,203	6,31
418,71	6,14
419,216	5,99
419,723	5,62
420,229	6,04
420,735	5,87
421,242	5,48
421,748	5,49
422,254	5,04
422,759	5,17
423,265	5,22
423,771	4,97
424,276	4,82
424,781	5,61
425,287	4,61
425,792	5,6
426,297	5,55
426,802	5,11
427,306	4,96
427,811	4,55
428,316	4,9
428,82	4,69
429,324	5
429,829	4,79
430,333	4,7
430,837	4,38
431,34	4,61
431,844	4,92
432,348	4,36
432,851	4,43
433,355	4,8
433,858	3,86
434,361	4,65
434,864	4,64
435,367	4,31
435,87	4,02
436,373	4,37
436,876	4,79
437,378	4,01
437,88	4,3
438,383	4,5
438,885	4
439,387	4,51
439,889	4,33
440,391	4,45
440,892	4,5
441,394	4,51
441,896	4,38
442,397	4,18
442,898	4,23
443,399	4,19
443,9	3,62
444,401	4,35
444,902	4,51
445,403	4,09
445,903	4,28
446,404	4,22
446,904	4,44
447,405	3,92
447,905	4,49
448,405	4,11
448,905	4,11
449,404	4,36
449,904	4,43
450,404	4,07
450,903	4,35
451,403	4,44
451,902	4,46
452,401	4,64
452,9	4,76
453,399	4,47
453,898	4,3
454,396	4,45
454,895	4,43
455,393	4,56
455,892	4,83
456,39	4,57
456,888	4,3
457,386	4,81
457,884	4,51
458,382	4,3
458,879	4,24
459,377	4,57
459,874	4,74
460,372	4,63
460,869	4,74
461,366	4,7
461,863	4,54
462,36	4,63
462,857	4,62
463,353	4,51
463,85	4,76
464,346	4,59
464,843	4,41
465,339	4,5
465,835	4,37
466,331	4,7
466,827	4,66
467,323	4,62
467,818	4,4
468,314	4,62
468,809	4,31
469,305	4,7
469,8	4,18
470,295	4,62
470,79	4,47
471,285	4,63
471,78	4,35
472,274	4,49
472,769	4,63
473,263	4,57
473,758	4,33
474,252	4,77
474,746	4,82
475,24	4,52
475,734	4,55
476,228	4,48
476,721	4,39
477,215	4,52
477,708	4,62
478,202	4,27
478,695	4,87
479,188	4,6
479,681	4,94
480,174	4,42
480,667	4,46
481,159	4,88
481,652	4,62
482,144	4,7
482,637	4,8
483,129	4,82
483,621	4,61
484,113	4,83
484,605	4,77
485,097	4,79
485,588	4,95
486,08	4,72
486,571	4,73
487,063	4,8
487,554	4,79
488,045	5,07
488,536	4,98
489,027	4,66
489,518	4,78
490,008	4,82
490,499	5,05
490,989	4,82
491,48	4,7
491,97	5,09
492,46	5,05
492,95	5,22
493,44	5,14
493,93	4,8
494,419	5,16
494,909	4,97
495,398	5,47
495,888	5,4
496,377	5,29
496,866	5,59
497,355	5,47
497,844	5,71
498,333	5,53
498,821	5,44
499,31	5,77
499,798	5,74
500,287	6,07
500,775	6,08
501,263	6,04
501,751	5,94
502,239	6,34
502,727	6,47
503,215	6,47
503,702	6,9
504,19	6,49
504,677	7,11
505,164	7,12
505,651	7,04
506,139	7,35
506,625	7,42
507,112	7,29
507,599	7,75
508,086	7,76
508,572	7,86
509,058	8,28
509,545	8,28
510,031	8,34
510,517	8,7
511,003	8,82
511,489	8,74
511,974	9,07
512,46	9,4
512,946	9,4
513,431	9,84
513,916	9,91
514,401	10,03
514,887	10,18
515,371	10,2
515,856	10,51
516,341	10,72
516,826	10,73
517,31	11,28
517,795	11,56
518,279	12,09
518,763	11,82
519,247	12,28
519,731	12,42
520,215	12,58
520,699	12,74
521,182	13,07
521,666	13,29
522,149	13,41
522,633	13,97
523,116	13,97
523,599	14,46
524,082	14,65
524,565	14,76
525,048	14,7
525,53	15,12
526,013	15,58
526,495	15,79
526,978	15,69
527,46	15,71
527,942	15,96
528,424	15,97
528,906	16,11
529,388	16,31
529,87	16,51
530,351	17,19
530,833	17,13
531,314	17,1
531,795	17,65
532,277	17,19
532,758	17,52
533,238	17,27
533,719	17,6
534,2	17,99
534,681	17,98
535,161	17,9
535,642	18,11
536,122	18,09
536,602	18,47
537,082	18,32
537,562	18,61
538,042	18,31
538,522	18,24
539,001	18,7
539,481	18,3
539,96	18,6
540,44	18,84
540,919	18,79
541,398	18,92
541,877	18,72
542,356	18,87
542,835	18,85
543,313	19,04
543,792	18,96
544,27	18,53
544,749	18,77
545,227	19,1
545,705	19,59
546,183	19,46
546,661	19,36
547,139	18,98
547,616	19,11
548,094	19,05
548,571	19,21
549,049	19,58
549,526	19,34
550,003	18,89
550,48	19,31
550,957	19,32
551,434	19,14
551,911	19,46
552,387	19,57
552,864	19,22
553,34	19,7
553,817	19,6
554,293	19,33
554,769	19,38
555,245	19,67
555,721	19,58
556,197	19,24
556,672	19,5
557,148	19,39
557,623	19,4
558,099	19,12
558,574	19,45
559,049	19,12
559,524	19,36
559,999	19,16
560,474	19,17
560,948	18,99
561,423	18,62
561,897	18,95
562,372	18,83
562,846	18,96
563,32	18,59
563,794	18,63
564,268	18,54
564,742	18,4
565,216	18,78
565,69	18,35
566,163	18,3
566,636	18,25
567,11	18,09
567,583	18,08
568,056	17,9
568,529	17,62
569,002	17,4
569,475	17,7
569,947	17,48
570,42	17,54
570,892	17,15
571,365	16,76
571,837	17,01
572,309	16,49
572,781	16,77
573,253	16,38
573,725	16,33
574,197	16,24
574,668	16,27
575,14	16,05
575,611	15,76
576,082	15,89
576,554	15,59
577,025	15,5
577,496	15,49
577,967	15,27
578,437	15,18
578,908	15,09
579,379	15,09
579,849	14,85
580,319	14,87
580,79	14,68
581,26	14,24
581,73	14,25
582,2	14,42
582,669	14,47
583,139	14,18
583,609	14,28
584,078	14,01
584,548	14,12
585,017	13,87
585,486	13,85
585,955	13,94
586,424	13,72
586,893	13,62
587,362	13,79
587,83	13,49
588,299	13,39
588,767	13,42
589,236	13,39
589,704	13,29
590,172	13,44
590,64	13,34
591,108	13,13
591,576	13,21
592,043	13,25
592,511	12,95
592,978	12,86
593,446	12,97
593,913	12,99
594,38	12,85
594,847	12,88
595,314	12,84
595,781	12,55
596,248	12,84
596,715	12,49
597,181	12,7
597,647	12,75
598,114	12,54
598,58	12,76
599,046	12,4
599,512	12,63
599,978	12,39
600,444	12,6
600,91	12,28
601,375	12,65
601,841	12,39
602,306	12,41
602,771	12,47
603,236	12,26
603,702	12,28
604,167	12,29
604,631	12,21
605,096	12,12
605,561	12,17
606,025	12,12
606,49	12,03
606,954	11,82
607,418	11,8
607,882	11,83
608,347	11,72
608,81	11,71
609,274	11,8
609,738	11,58
610,202	11,62
610,665	11,53
611,128	11,26
611,592	11,2
612,055	11,33
612,518	11,29
612,981	11,25
613,444	11,26
613,907	11,26
614,369	10,69
614,832	10,67
615,294	10,7
615,757	10,7
616,219	10,6
616,681	10,57
617,143	10,52
617,605	10,64
618,067	10,67
618,529	10,39
618,99	10,27
619,452	10,24
619,913	10,21
620,375	10,24
620,836	10,24
621,297	10,17
621,758	10,24
622,219	9,98
622,68	10,07
623,14	9,88
623,601	9,95
624,061	9,95
624,522	9,86
624,982	9,8
625,442	9,74
625,902	9,83
626,362	9,8
626,822	9,8
627,282	9,93
627,742	9,56
628,201	9,7
628,661	9,83
629,12	9,76
629,579	9,6
630,038	9,52
630,497	9,55
630,956	9,56
631,415	9,54
631,874	9,55
632,332	9,63
632,791	9,28
633,249	9,61
633,708	9,5
634,166	9,33
634,624	9,34
635,082	9,13
635,54	9,23
635,998	9,08
636,455	9
636,913	9,2
637,37	8,91
637,828	8,75
638,285	8,76
638,742	8,77
639,199	8,53
639,656	8,53
640,113	8,53
640,57	8,28
641,027	8,41
641,483	8,35
641,94	8,07
642,396	8,11
642,852	8,11
643,309	7,78
643,765	7,88
644,221	7,61
644,676	7,62
645,132	7,57
645,588	7,42
646,043	7,41
646,499	7,36
646,954	7,26
647,409	7,1
647,864	7,16
648,319	6,94
648,774	6,93
649,229	6,83
649,684	6,84
650,139	6,67
650,593	6,67
651,047	6,63
651,502	6,47
651,956	6,54
652,41	6,55
652,864	6,57
653,318	6,55
653,772	6,54
654,225	6,48
654,679	6,4
655,133	6,4
655,586	6,18
656,039	6,33
656,492	6,28
656,946	6,2
657,399	6,06
657,851	6,21
658,304	6,06
658,757	6,04
659,209	5,79
659,662	5,93
660,114	5,85
660,567	5,68
661,019	5,75
661,471	5,7
661,923	5,66
662,375	5,58
662,826	5,57
663,278	5,47
663,73	5,37
664,181	5,47
664,632	5,35
665,084	5,4
665,535	5,19
665,986	5,15
666,437	5,25
666,888	5,14
667,338	5,3
667,789	5,28
668,24	5,14
668,69	5,15
669,14	5,2
669,591	5,08
670,041	5,16
670,491	5,11
670,941	5,17
671,391	5,22
671,84	5,14
672,29	5,29
672,74	5,23
673,189	5,21
673,638	5,26
674,088	5,37
674,537	5,52
674,986	5,52
675,435	5,46
675,883	5,59
676,332	5,57
676,781	5,66
677,229	5,77
677,678	5,84
678,126	5,83
678,574	5,88
679,022	5,97
679,47	6,26
679,918	6,08
680,366	6,29
680,814	6,44
681,261	6,54
681,709	6,52
682,156	6,75
682,604	6,67
683,051	6,84
683,498	6,81
683,945	7,07
684,392	7,16
684,839	7,27
685,286	7,33
685,732	7,34
686,179	7,54
686,625	7,61
687,071	7,92
687,518	8,01
687,964	8,17
688,41	8,29
688,856	8,48
689,301	8,87
689,747	8,94
690,193	9,15
690,638	9,59
691,084	9,7
691,529	10,02
691,974	10,3
692,419	10,55
692,864	11,11
693,309	11,18
693,754	11,66
694,199	12,1
694,643	12,58
695,088	12,76
695,532	13,2
695,977	13,44
696,421	13,93
696,865	14,46
697,309	14,74
697,753	15,1
698,197	15,64
698,64	15,93
699,084	16,42
699,527	16,56
699,971	17,06
700,414	17,58
700,857	17,95
701,3	18,21
701,743	18,6
702,186	19,2
702,629	19,52
703,072	19,77
703,515	20,25
703,957	20,22
704,399	20,77
704,842	21,22
705,284	21,56
705,726	21,85
706,168	21,96
706,61	22,73
707,052	22,75
707,494	23,19
707,935	23,56
708,377	23,97
708,818	23,97
709,26	24,34
709,701	24,58
710,142	25,03
710,583	24,83
711,024	25,49
711,465	25,66
711,905	26,12
712,346	26,14
712,787	26,72
713,227	26,7
713,667	27,07
714,108	27,51
714,548	27,5
714,988	27,73
715,428	27,9
715,868	28,23
716,307	28,37
716,747	28,55
717,186	29,01
717,626	29,03
718,065	29,36
718,504	29,45
718,944	30,17
719,383	29,98
719,822	30,22
720,261	30,32
720,699	30,26
721,138	30,84
721,576	30,91
722,015	30,88
722,453	31,23
722,892	31,52
723,33	31,45
723,768	31,85
724,206	31,61
724,644	32,17
725,081	32,06
725,519	32,07
725,957	32,74
726,394	32,47
726,832	32,66
727,269	32,97
727,706	32,67
728,143	33,09
728,58	32,92
729,017	33,26
729,454	33,29
729,89	33,2
730,327	33,42
730,764	33,41
731,2	33,45
731,636	33,77
732,072	33,82
732,509	33,97
732,945	33,84
733,38	33,7
733,816	34,12
734,252	34,09
734,688	33,91
735,123	34,02
735,559	34,13
735,994	34,44
736,429	34,28
736,864	34,37
737,299	34,18
737,734	34,77
738,169	34,8
738,604	34,24
739,038	34,75
739,473	34,75
739,907	34,33
740,342	34,5
740,776	34,75
741,21	34,74
741,644	34,46
742,078	34,85
742,512	34,61
742,946	34,47
743,379	34,61
743,813	34,38
744,246	34,5
744,68	34,64
745,113	34,22
745,546	34,48
745,979	34,45
746,412	34,72
746,845	34,26
747,278	34,7
747,711	34,63
748,143	34,63
748,576	34,26
749,008	34,59
749,441	34,48
749,873	34,1
750,305	34,5
750,737	34,6
751,169	33,97
751,601	34,38
752,032	34,52
752,464	34,48
752,896	33,92
753,327	34,41
753,758	34,13
754,19	34,19
754,621	34,39
755,052	34,02
755,483	34,35
755,914	33,73
756,344	34,2
756,775	34,19
757,206	33,94
757,636	34,02
758,066	33,93
758,497	33,72
758,927	33,88
759,357	33,94
759,787	33,91
760,217	33,94
760,647	34
761,076	33,62
761,506	33,58
761,935	33,84
762,365	33,87
762,794	34,01
763,223	33,81
763,653	33,43
764,082	33,84
764,51	33,41
764,939	33,54
765,368	33,88
765,797	33,41
766,225	33,58
766,654	33,5
767,082	33,47
767,51	33,55
767,938	33,23
768,367	33,34
768,795	33,31
769,222	33,48
769,65	33,39
770,078	33,31
770,505	33,41
770,933	33,2
771,36	33,32
771,788	33,42
772,215	33,06
772,642	33,29
773,069	33,06
773,496	32,88
773,923	32,94
774,349	33,38
774,776	33,32
775,203	33,16
775,629	33,23
776,055	33,07
776,482	33,19
776,908	33,01
777,334	32,95
777,76	33,09
778,186	33,17
778,611	33,04
779,037	32,99
779,463	33,11
779,888	33,02
780,314	32,94
780,739	33,13
781,164	33,02
781,589	32,91
782,014	32,82
782,439	32,81
782,864	33,07
783,289	32,89
783,713	32,98
784,138	32,75
784,562	33,21
784,987	32,88
785,411	32,96
785,835	32,77
786,259	32,68
786,683	32,7
787,107	32,8
787,531	33,01
787,954	32,56
788,378	32,92
788,802	32,67
789,225	32,43
789,648	32,94
790,071	32,84
790,495	32,87
790,918	32,7
791,34	32,82
791,763	32,6
792,186	32,71
792,609	32,71
793,031	32,85
793,454	32,73
793,876	32,76
794,298	33,05
794,721	32,7
795,143	32,45
795,565	32,67
795,986	32,74
796,408	32,34
796,83	32,84
797,252	32,78
797,673	32,59
798,094	32,62
798,516	32,75
798,937	32,95
799,358	32,68
799,779	32,61
800,2	32,99
800,621	32,42
801,042	32,73
801,462	32,83
801,883	32,62
802,303	32,4
802,724	32,35
803,144	32,33
803,564	32,58
803,984	32,72
804,404	32,67
804,824	32,52
805,244	32,6
805,664	32,19
806,084	32,69
806,503	32,65
806,923	32,63
807,342	32,6
807,761	32,6
808,18	32,67
808,599	32,47
809,018	32,37
809,437	32,87
809,856	32,72
810,275	32,49
810,693	32,58
811,112	32,2
811,53	32,34
811,949	32,8
812,367	32,41
812,785	32,24
813,203	32,66
813,621	32,72
814,039	32,48
814,457	32,3
814,874	32,55
815,292	32,53
815,709	32,72
816,127	32,49
816,544	32,56
816,961	32,24
817,378	32,23
817,795	32,42
818,212	32,46
818,629	32,45
819,046	32,67
819,462	32,65
819,879	32,74
820,295	32,16
820,712	32,25
821,128	32,36
821,544	32,51
821,96	32,3
822,376	32,53
822,792	32,62
823,208	32,58
823,624	32,29
824,039	32,35
824,455	32,33
824,87	32,62
825,286	32,65
825,701	32,48
826,116	32,33
826,531	32,84
826,946	32,27
827,361	32,36
827,776	32,42
828,19	32,4
828,605	32,44
829,02	32,65
829,434	32,59
829,848	31,9
830,263	32,23
830,677	32,61
831,091	32,68
831,505	32,46
831,919	32,36
832,332	32,41
832,746	32,36
833,16	32,28
833,573	32,41
833,987	32,25
834,4	32,5
834,813	32,29
835,226	32,44
835,639	32,4
836,052	32,47
836,465	32,07
836,878	32,07
837,29	32,58
837,703	32,22
838,116	32,06
838,528	32,2
838,94	32,09
839,352	32,52
839,765	32,31
840,177	32,28
840,589	32,27
841	32,27
841,412	32,28
841,824	32,25
842,235	32,57
842,647	32,17
843,058	32,27
843,47	32,1
843,881	32,45
844,292	32,56
844,703	32,14
845,114	32,23
845,525	32,07
845,935	32,06
846,346	32,48
846,757	32,04
847,167	32,08
847,577	32,37
847,988	32,04
848,398	32,29
848,808	32,26
849,218	32,24
849,628	32,17
850,038	31,86
850,448	31,97
850,857	32,3
851,267	32,02
851,676	32,33
852,086	32,16
852,495	32,27
852,904	32,19
853,313	32,21
853,722	32,07
854,131	31,68
854,54	32,3
854,949	32,21
855,357	32,22
855,766	32,5
856,174	32,12
856,583	32,12
856,991	32,23
857,399	32,28
857,807	31,83
858,215	32,17
858,623	32,36
859,031	31,97
859,439	31,89
859,846	32,08
860,254	32,32
860,661	32,09
861,069	32
861,476	32,15
861,883	32,16
862,29	32,14
862,697	32,07
863,104	32,3
863,511	32,14
863,918	32,06
864,325	32,06
864,731	31,66
865,138	31,87
865,544	32,17
865,95	32,01
866,357	32,27
866,763	32,13
867,169	31,95
867,575	32,08
867,98	32,05
868,386	32,01
868,792	31,65
869,197	32,26
869,603	31,99
870,008	32,53
870,414	32,02
870,819	32,14
871,224	32,06
871,629	32,08
872,034	32,19
872,439	32,02
872,844	32,27
873,248	32,05
873,653	32,43
874,057	32,01
874,462	32,17
874,866	32,2
875,27	32,34
875,674	32,06
876,078	32
876,482	31,86
876,886	31,76
877,29	32,4
877,694	32,64
878,097	32,28
878,501	32,36
878,904	32,2
879,308	32
879,711	31,98
880,114	32,07
880,517	31,89
880,92	32,02
881,323	32,13
881,726	32,22
882,128	31,77
882,531	32,11
882,934	31,9
883,336	32,22
883,738	32,34
884,141	32,31
884,543	32,03
884,945	32,22
885,347	32,14
885,749	32,16
886,151	32,16
886,552	32,26
886,954	32,15
887,355	31,98
887,757	32,14
888,158	32,04
888,56	31,98
888,961	32
889,362	31,89
889,763	32,01
890,164	32,29
890,565	31,92
890,965	31,97
891,366	32,12
891,767	32,54
892,167	32,09
892,567	31,97
892,968	31,99
893,368	31,85
893,768	32,11
894,168	31,9
894,568	32,02
894,968	31,94
895,368	31,76
895,767	31,71
896,167	31,89
896,566	32,05
896,966	31,94
897,365	31,8
897,764	31,96
898,164	31,88
898,563	32,22
898,962	31,77
899,361	31,92
899,759	31,95
900,158	31,92
900,557	32,19
900,955	31,79
901,354	32,22
901,752	31,86
902,15	31,9
902,548	32,12
902,947	32,21
903,345	32,45
903,742	32,19
904,14	32,12
904,538	31,8
904,936	31,79
905,333	31,73
905,731	32,16
906,128	31,71
906,525	31,93
906,923	31,98
907,32	32,18
907,717	32,25
908,114	32,12
908,511	31,96
908,907	31,96
909,304	32,07
909,701	31,65
910,097	31,71
910,494	32,11
910,89	31,83
911,286	32,16
911,682	31,98
912,078	32,35
912,474	31,96
912,87	31,74
913,266	32,09
913,662	31,62
914,058	32,24
914,453	32,2
914,849	31,71
915,244	32,23
915,639	32,38
916,034	32,01
916,43	32,18
916,825	31,83
917,22	32,01
917,614	32,01
918,009	32,32
918,404	32,38
918,798	32,12
919,193	32,43
919,587	31,89
919,982	32,27
920,376	31,99
920,77	31,77
921,164	32,14
921,558	32,01
921,952	31,81
922,346	32,13
922,74	31,64
923,133	32,07
923,527	32,3
923,92	32,08
924,314	32,42
924,707	32,18
925,1	31,58
925,493	32
925,886	32,18
926,279	32,33
926,672	32,11
927,065	31,77
927,457	31,74
927,85	32
928,243	32
928,635	31,8
929,027	31,61
929,42	31,68
929,812	31,76
930,204	31,95
930,596	32,14
930,988	31,83
931,379	31,87
931,771	31,91
932,163	31,9
932,554	32,21
932,946	32,09
933,337	31,91
933,729	31,51
934,12	31,83
934,511	31,5
934,902	31,75
935,293	31,87
935,684	31,7
936,075	31,27
936,465	31,78
936,856	31,08
937,246	31,78
937,637	31,32
938,027	31,71
938,417	31,36
938,808	31,61
939,198	31,67
939,588	31,53
939,978	31,99
940,368	32,17
940,757	31,46
941,147	31,6
941,537	32,1
941,926	30,81
942,315	31,57
942,705	31,36
943,094	30,76
943,483	31,97
943,872	31,79
944,261	31,39
944,65	31,3
945,039	31,91
945,428	31,13
945,816	30,89
946,205	31,01
946,593	32,45
946,982	31,89
947,37	31,7
947,758	31,58
948,146	31,83
948,534	31,66
948,922	31,53
949,31	30,64
949,698	31,21
950,086	31,36
950,473	31,38
950,861	31,62
951,248	31,65
951,636	31,63
952,023	31,26
952,41	31,62
952,797	31,54
953,184	31,09
953,571	31,5
953,958	31,32
954,345	31,76
954,731	32,4
955,118	31,09
955,505	31,33
955,891	31,8
956,277	31,75
956,664	31,2
957,05	32,19
957,436	31,37
957,822	31,43
958,208	31,41
958,594	31,86
958,979	31,52
959,365	31,3
959,751	31,81
960,136	31,18
960,522	31,29
960,907	31,44
961,292	31,67
961,677	32,13
962,062	31,59
962,447	31,52
962,832	31,24
963,217	31,08
963,602	30,86
963,986	31,22
964,371	31,74
964,756	30,71
965,14	31,21
965,524	31,23
965,908	31,4
966,293	30,74
966,677	31,94
967,061	31,68
967,445	31,22
967,828	31,44
968,212	30,95
968,596	31,44
968,979	31,2
969,363	31,33
969,746	31,58
970,129	31,64
970,513	31,85
970,896	31,09
971,279	31,29
971,662	31,29
972,045	31,14
972,428	30,98
972,81	31,47
973,193	31,17
973,575	31,07
973,958	31,21
974,34	31,44
974,723	31,09
975,105	31,58
975,487	31,25
975,869	31,46
976,251	31,62
976,633	31,4
977,015	31,51
977,396	31,1
977,778	31,23
978,16	31,65
978,541	31,02
978,922	31,65
979,304	31,15
979,685	31,7
980,066	31,75
980,447	31,24
980,828	31,08
981,209	31,7
981,59	30,81
981,97	31,39
982,351	31,29
982,732	31,24
983,112	31,29
983,493	31,12
983,873	31,76
984,253	31,64
984,633	30,57
985,013	31,5
985,393	31,36
985,773	31,84
986,153	31,71
986,533	30,99
986,912	31,5
987,292	31,35
987,671	31,63
988,051	31,66
988,43	31,5
988,809	31,9
989,188	31,25
989,567	31,11
989,946	31,22
990,325	31,19
990,704	31,46
991,083	30,78
991,461	30,52
991,84	31,06
992,218	31,51
992,597	31,17
992,975	31,27
993,353	31,64
993,732	30,91
994,11	30,86
994,488	30,87
994,866	30,97
995,243	31,19
995,621	31,12
995,999	31
996,376	31,74
996,754	31,1
997,131	31,76
997,509	31,85
997,886	31,55
998,263	31,82
998,64	31,23
999,017	31,33
999,394	31,27
999,771	30,83
1000,148	31,06
1000,524	31,83
1000,901	31,45
1001,277	32,19
1001,654	31,43
1002,03	30,92
1002,406	30,94
1002,783	31,66
1003,159	31,78
1003,535	31,02
1003,911	31,5
1004,286	31,47
1004,662	31,85
1005,038	31,96
1005,414	32,15
1005,789	31,91
1006,164	31,91
1006,54	31,33
1006,915	31,4
1007,29	31,81
1007,665	31,83
1008,04	32,27
1008,415	31,44
1008,79	31,72
1009,165	31,6
1009,54	31,68
1009,914	31,41
1010,289	31,76
1010,663	32,12
1011,038	31,82
1011,412	31,59
1011,786	31,56
1012,16	31,36
1012,535	32,15
1012,909	31,87
1013,282	32,31
1013,656	31,75
1014,03	32,36
1014,404	31,61
1014,777	31,84
1015,151	31,62
1015,524	31,74
1015,897	31,29
1016,271	31,83
1016,644	31,36
1017,017	32,22
1017,39	31,85
1017,763	31,35
1018,136	32,32
1018,508	31,59
1018,881	31,3
1019,254	31,61
1019,626	31,48
1019,999	31,87
1020,371	31,54
1020,743	30,82
1021,116	31,38
1021,488	31,62
1021,86	31,84
1022,232	31,61
1022,604	32,19
1022,975	30,98
1023,347	31,12
1023,719	31,47
1024,09	31,2
1024,462	31,49
1024,833	31,37
1025,204	31,67
1025,576	31,9
1025,947	32,13
1026,318	31,52
1026,689	32,13
1027,06	31,95
1027,431	31,86
1027,801	31,68
1028,172	32,17
1028,543	31,5
1028,913	31,71
1029,284	32,01
1029,654	31,36
1030,024	31,86
1030,394	31,94
1030,764	31,88
1031,135	31,49
1031,504	31,91
1031,874	31,74
1032,244	32,13
1032,614	32,52
1032,983	32,03
1033,353	31,55
1033,722	31,89
1034,092	31,71
1034,461	32,39
1034,83	31,71
1035,2	32,11
1035,569	32,52
1035,938	32,7
1036,307	31,8
1036,675	31,78
1037,044	31,69
1037,413	31,32
1037,781	31,35
1038,15	33,09
1038,518	31,14
1038,887	31,54
1039,255	32,37
1039,623	31,25
1039,991	32,65
1040,359	32,16
1040,727	31,61
1041,095	30,94
1041,463	32,4
1041,831	31,88
1042,198	31,94
1042,566	31,69
1042,933	32,61
1043,301	31,15
1043,668	32,12
1044,035	31,53
1044,402	33,01
1044,77	31,29
1045,137	32,55
1045,503	32,06
1045,87	31,23
1046,237	32,15
1046,604	31,63
1046,97	32,62
1047,337	31,72
1047,703	31,28
1048,07	32,52
1048,436	31,02
1048,802	30,91
1049,168	32,87
1049,534	31,56
1049,9	32,24
1050,266	31,93
1050,632	32,29
1050,998	32,71
1051,364	32,28
1051,729	32,41
1052,095	32,44
1052,46	32,4
1052,825	32,48
1053,191	33,06
1053,556	31,68
1053,921	32,05
1054,286	33,1
1054,651	32,03
1055,016	31,58
1055,381	32,65
1055,745	32,34
1056,11	31,09
1056,475	32,31
1056,839	32,4
1057,203	30,98
1057,568	32,66
1057,932	32,35
1058,296	32,3
1058,66	31,96
1059,024	31,35
1059,388	32,48
1059,752	32,48
1060,116	33,44
1060,48	31,82
1060,843	32,49
1061,207	33,16
1061,57	31,88
1061,934	32,35
1062,297	33,35
1062,66	32,46
1063,023	32,48
1063,386	32,7
1063,749	32,23
1064,112	32,1
1064,475	33,68
1064,838	32,21
1065,201	31,44
1065,563	31,15
1065,926	32,28
1066,288	31,59
1066,651	32,44
1067,013	32,69
1067,375	31,02
1067,737	33,4
1068,099	32,82
1068,461	32,04
1068,823	32,35
1069,185	32,1
1069,547	32,01
1069,909	32,3
1070,27	32,7
1070,632	31,97
1070,993	33,12
1071,355	30,76
1071,716	32,73
1072,077	31,71
1072,438	31,36
1072,799	32,18
1073,16	31,7
1073,521	31,7
1073,882	33,54
1074,243	32,37
1074,603	31,33
1074,964	31,47
1075,325	32,3
1075,685	31,29
1076,045	29,25
1076,406	33,31
1076,766	32,88
1077,126	30,83
1077,486	32,23
1077,846	32,55
1078,206	32,61
1078,566	33,37
1078,925	31,61
1079,285	31,87
1079,645	32,62
1080,004	33,05
1080,364	34,12
1080,723	31,18
1081,082	32,65
1081,442	31,78
1081,801	31,34
1082,16	31,12
1082,519	34,89
1082,878	32,46
1083,237	30,5
1083,595	32,13
1083,954	31,52
1084,313	31,87
1084,671	30,62
1085,03	33,15
1085,388	32,37
1085,746	33,69
1086,104	32,54
1086,463	32,3
1086,821	32,25
1087,179	32,09
1087,537	31,53
1087,894	33,54
1088,252	31,51
1088,61	32,04
1088,967	32,08
1089,325	34,8
1089,682	31,82
1090,04	35,56
1090,397	32,19
1090,754	34,34
1091,111	30,95
1091,469	34,46
1091,826	31,6
1092,182	31,28
1092,539	31,93
1092,896	31,84
1093,253	32,75
1093,609	31,29
1093,966	32,36
1094,322	31,38
1094,679	31,48
1095,035	33,21
1095,391	32,12
1095,748	34,3
1096,104	32,46
1096,46	31,72
1096,816	34,37
1097,171	33,63
1097,527	31,31
1097,883	32,48
1098,239	30,9
1098,594	32,46
1098,95	31,93
1099,305	30,51
1099,66	35,25
1100,016	33,01
1100,371	32,69
1100,726	32,86
1101,081	33,18
1101,436	31,07
1101,791	32,58
1102,146	32,49
1102,5	33,39
1102,855	33,47
1103,21	34,51
1103,564	33,56
1103,918	31,1
1104,273	32,26
1104,627	33,72
1104,981	33,09
1105,335	32,95
1105,69	35,88
1106,043	34,35
1106,397	34,14
1106,751	36,36
1107,105	34,42
1107,459	34,51
1107,812	34,97
1108,166	36,05
1108,519	33,93
1108,873	36,19
1109,226	35,49
1109,579	33,19
1109,932	35,01
1110,285	35,72
1110,638	35,65
1110,991	33,92
1111,344	33,49
1111,697	32,27
1112,05	35,53
1112,402	34,87
1112,755	32,92
1113,107	31,46
1113,46	32,26
1113,812	33,79
1114,164	34,67
1114,517	34,33
1114,869	80
1115,221	63,93
1115,573	72,31
1115,924	61,97
