Data from G2__Relative__3__00081.txt Node

Date: Thu Feb 01 16:24:27 CET 2024
User: diatiterra
Spectrometer: HDX00911
Trigger mode: 0
Integration Time (sec): 6,000000E-3
Scans to average: 2
Nonlinearity correction enabled: false
Boxcar width: 0
Storing dark spectrum: false
XAxis mode: Wavelengths
Number of Pixels in Spectrum: 2068
>>>>>Begin Spectral Data<<<<<
194,468	186,15
195,025	119,44
195,581	142,42
196,138	119,12
196,694	137,36
197,251	113,49
197,807	81,4
198,363	74,56
198,919	72,83
199,474	74,52
200,03	83,52
200,586	85,44
201,141	72,68
201,696	81,5
202,251	67,96
202,806	79,31
203,361	72,68
203,916	83,78
204,471	73,37
205,025	78,38
205,58	77,46
206,134	77,13
206,688	76,96
207,242	84,3
207,796	62,63
208,35	81,98
208,904	83,05
209,457	80
210,011	90,8
210,564	81,72
211,117	86,93
211,67	80,9
212,223	81,44
212,776	71,12
213,329	79,14
213,881	71,5
214,434	73,5
214,986	98,19
215,538	80,98
216,09	80,21
216,642	93,37
217,194	91,76
217,746	90,29
218,297	77,22
218,849	91,86
219,4	78,89
219,951	85,14
220,502	80,47
221,053	83,93
221,604	87,57
222,155	73,8
222,705	71,35
223,256	87,08
223,806	77,14
224,356	64,95
224,906	86,06
225,456	79,14
226,006	75,96
226,556	82,7
227,106	76,22
227,655	71,73
228,204	78,53
228,754	83,91
229,303	73,53
229,852	66,67
230,401	80,25
230,949	80,79
231,498	75,53
232,047	72,22
232,595	81,61
233,143	75,26
233,691	64,84
234,239	69,95
234,787	77,33
235,335	90,12
235,883	68,95
236,43	81,29
236,978	81,38
237,525	81,41
238,072	68,89
238,619	91,46
239,166	63,24
239,713	78,77
240,26	80,7
240,806	80,37
241,353	77,33
241,899	70,33
242,445	72,78
242,991	80,54
243,537	81,7
244,083	78,02
244,629	66,5
245,174	79,89
245,72	78,21
246,265	71,2
246,81	71,59
247,355	78,02
247,9	81,76
248,445	92,99
248,99	75,56
249,534	74,16
250,079	84,34
250,623	72,28
251,168	77,01
251,712	82,35
252,256	83,85
252,8	74,58
253,343	92,86
253,887	75,96
254,43	73,86
254,974	80,45
255,517	71,19
256,06	81,25
256,603	81,46
257,146	66,3
257,689	76,72
258,232	67,2
258,774	81,55
259,317	90,11
259,859	70,68
260,401	83,71
260,943	90,45
261,485	86,49
262,027	77,25
262,569	92,05
263,11	77,4
263,652	82,97
264,193	80,68
264,734	73,1
265,275	80,21
265,816	70,27
266,357	76,19
266,898	62,12
267,438	79,11
267,979	73,3
268,519	82,14
269,059	83,13
269,6	74,32
270,14	69,9
270,68	78,08
271,219	79,31
271,759	84,62
272,298	91,89
272,838	75,44
273,377	82,12
273,916	93,96
274,455	85,13
274,994	77,78
275,533	87,43
276,072	76,65
276,61	86,39
277,149	83,53
277,687	75,9
278,225	92,94
278,763	82,08
279,301	80,32
279,839	84,57
280,377	82,61
280,914	79,38
281,452	81,56
281,989	84,71
282,526	91,14
283,064	89,38
283,601	82,58
284,137	82,82
284,674	84,83
285,211	80,11
285,747	77,89
286,284	67,65
286,82	73,44
287,356	74,74
287,892	85,64
288,428	87,93
288,964	74,73
289,5	79,77
290,035	84,66
290,571	70,37
291,106	72,47
291,641	79,07
292,176	76,34
292,711	80,81
293,246	76,09
293,781	81,77
294,315	73,47
294,85	76,13
295,384	84,97
295,918	74,47
296,453	82,7
296,987	65,03
297,52	73,37
298,054	79,31
298,588	82,93
299,121	72,63
299,655	80,59
300,188	85,33
300,721	82,61
301,254	82,01
301,787	70,43
302,32	67,88
302,853	88,83
303,385	76,09
303,918	86,86
304,45	80,61
304,982	73,45
305,514	79,26
306,046	74,46
306,578	81,28
307,11	79,01
307,641	85,16
308,173	84,83
308,704	84,09
309,236	78,68
309,767	75,79
310,298	87,42
310,829	75
311,359	71,5
311,89	85,38
312,421	77,3
312,951	80,57
313,481	81,18
314,012	69,27
314,542	81,91
315,072	80,11
315,601	95,45
316,131	73,94
316,661	88,07
317,19	74,57
317,72	78,92
318,249	87,78
318,778	100,68
319,307	86,98
319,836	87,57
320,365	84,66
320,893	83,42
321,422	91,07
321,95	78,65
322,479	94,55
323,007	84,83
323,535	86,13
324,063	88,14
324,591	73,54
325,118	79,03
325,646	87,23
326,173	84,7
326,701	70,26
327,228	79,06
327,755	82,23
328,282	82,12
328,809	88,24
329,336	79,6
329,862	79,43
330,389	69,07
330,915	83,42
331,441	86,55
331,968	90,45
332,494	83,67
333,02	86,03
333,545	63,49
334,071	72,31
334,597	81,46
335,122	75,53
335,648	83,17
336,173	76,76
336,698	80,85
337,223	83,42
337,748	69,15
338,272	74,47
338,797	71,04
339,322	71,89
339,846	80,11
340,37	68,85
340,894	73,13
341,419	80,46
341,942	77,25
342,466	78,76
342,99	71,73
343,514	70,1
344,037	70,74
344,56	61,24
345,084	75,12
345,607	66,5
346,13	70,42
346,653	77,1
347,175	60,77
347,698	68,34
348,221	69,48
348,743	57,98
349,265	71,92
349,787	66,34
350,309	55,47
350,831	62,76
351,353	63,51
351,875	60,73
352,397	59,91
352,918	66,67
353,439	64,56
353,961	55,91
354,482	67,66
355,003	58,44
355,524	58,02
356,044	64,32
356,565	55,28
357,086	53,93
357,606	50,21
358,126	52,87
358,646	57,99
359,167	52,61
359,687	57,62
360,206	58,89
360,726	61,09
361,246	52,45
361,765	50,72
362,285	46,47
362,804	51,8
363,323	58,16
363,842	48,94
364,361	50,73
364,88	47,57
365,398	52,28
365,917	46,3
366,435	53
366,954	51,14
367,472	46,52
367,99	49,68
368,508	48
369,026	47,76
369,544	46,54
370,061	43,62
370,579	45,37
371,096	38,84
371,613	42,74
372,131	39,42
372,648	45,3
373,165	44,38
373,681	45,48
374,198	44,7
374,715	47,01
375,231	45,82
375,747	42,06
376,264	38,64
376,78	38,58
377,296	39,42
377,812	38,99
378,327	40,85
378,843	38,36
379,359	39,62
379,874	40,2
380,389	38,15
380,905	35,48
381,42	41,11
381,935	39,02
382,449	29,75
382,964	33,68
383,479	32,72
383,993	33,95
384,508	35,15
385,022	33,66
385,536	31,5
386,05	31,26
386,564	36,06
387,078	32,8
387,592	28,77
388,105	24,79
388,619	27,04
389,132	29,06
389,645	27,84
390,158	28,51
390,671	30,49
391,184	28,47
391,697	31,18
392,21	25,69
392,722	27,62
393,235	27,21
393,747	27,71
394,259	27,89
394,771	27,69
395,283	24,8
395,795	26,29
396,307	23,62
396,818	24,04
397,33	26,77
397,841	22,63
398,353	25,21
398,864	22,82
399,375	23,61
399,886	22,74
400,397	21,76
400,907	20,69
401,418	22,15
401,928	20,13
402,439	19,61
402,949	17,19
403,459	18,44
403,969	16,56
404,479	18,26
404,989	18,29
405,498	15,77
406,008	16,38
406,517	16,5
407,027	15,49
407,536	14,6
408,045	15,24
408,554	14,45
409,063	13,9
409,572	12,83
410,08	12,42
410,589	11,78
411,097	11,61
411,606	11,67
412,114	10,46
412,622	10,45
413,13	11,05
413,638	9,37
414,145	10,06
414,653	9,79
415,16	9,67
415,668	9,16
416,175	9,05
416,682	8,51
417,189	8,54
417,696	8,41
418,203	8,32
418,71	7,67
419,216	7,97
419,723	7,76
420,229	6,83
420,735	7,21
421,242	7,61
421,748	7,26
422,254	6,8
422,759	6,87
423,265	7,38
423,771	7,39
424,276	6,77
424,781	6,92
425,287	6,05
425,792	6,77
426,297	6,4
426,802	6,24
427,306	6,14
427,811	6,32
428,316	6,54
428,82	5,68
429,324	6,2
429,829	6,2
430,333	5,8
430,837	5,68
431,34	6,31
431,844	5,44
432,348	5,7
432,851	5,07
433,355	5,56
433,858	5,38
434,361	5,58
434,864	5,61
435,367	5,57
435,87	5,5
436,373	5,89
436,876	5,96
437,378	5,15
437,88	5,32
438,383	5,29
438,885	4,9
439,387	5,34
439,889	5,31
440,391	5,54
440,892	5,35
441,394	5,32
441,896	5,33
442,397	5,2
442,898	4,66
443,399	5,04
443,9	5,1
444,401	5,1
444,902	5,07
445,403	5,2
445,903	4,99
446,404	5,58
446,904	5,28
447,405	4,73
447,905	5,3
448,405	4,58
448,905	5,05
449,404	5,5
449,904	5,18
450,404	5,44
450,903	4,97
451,403	5,5
451,902	5,77
452,401	5,24
452,9	5,34
453,399	5,29
453,898	5,16
454,396	5,26
454,895	5,45
455,393	5,64
455,892	5,54
456,39	5,35
456,888	4,97
457,386	5,58
457,884	5,23
458,382	5,22
458,879	5,62
459,377	5,44
459,874	5,52
460,372	5,2
460,869	5
461,366	5,38
461,863	5,31
462,36	5,25
462,857	5,26
463,353	5,16
463,85	5,38
464,346	5,05
464,843	5,06
465,339	4,84
465,835	5,3
466,331	5,17
466,827	5,06
467,323	5,07
467,818	5,25
468,314	5,13
468,809	5,1
469,305	5,11
469,8	5,1
470,295	5,03
470,79	4,97
471,285	5,31
471,78	5,29
472,274	5,15
472,769	4,95
473,263	4,99
473,758	4,61
474,252	5,27
474,746	5,16
475,24	5,15
475,734	4,93
476,228	5,08
476,721	5,04
477,215	5,01
477,708	5,3
478,202	5,26
478,695	5,12
479,188	5,17
479,681	5,05
480,174	5,26
480,667	4,89
481,159	4,98
481,652	4,92
482,144	4,87
482,637	4,91
483,129	5,06
483,621	5,05
484,113	5,52
484,605	5,09
485,097	5,27
485,588	5,16
486,08	5,22
486,571	5,44
487,063	5,24
487,554	5,16
488,045	5,37
488,536	5,19
489,027	4,92
489,518	5,38
490,008	5,27
490,499	5,32
490,989	5,66
491,48	5,73
491,97	5,6
492,46	5,42
492,95	5,72
493,44	5,7
493,93	5,71
494,419	5,83
494,909	5,48
495,398	5,9
495,888	5,91
496,377	6,09
496,866	6,2
497,355	6,19
497,844	6,09
498,333	6,34
498,821	6
499,31	6,11
499,798	6,49
500,287	6,31
500,775	6,69
501,263	6,7
501,751	6,66
502,239	6,97
502,727	6,81
503,215	7,26
503,702	7,23
504,19	7,39
504,677	7,63
505,164	7,84
505,651	7,42
506,139	7,99
506,625	8,16
507,112	8,13
507,599	8,6
508,086	8,84
508,572	8,53
509,058	8,72
509,545	9,14
510,031	9,58
510,517	9,58
511,003	9,64
511,489	10,03
511,974	10,37
512,46	10,49
512,946	10,79
513,431	11,18
513,916	11,1
514,401	11,02
514,887	11,92
515,371	11,79
515,856	12,24
516,341	12,42
516,826	12,68
517,31	13,26
517,795	13,11
518,279	14,17
518,763	13,92
519,247	14,43
519,731	14,5
520,215	14,71
520,699	15,13
521,182	15,55
521,666	16,22
522,149	15,81
522,633	17,01
523,116	16,81
523,599	17,18
524,082	17,16
524,565	18,42
525,048	18,09
525,53	18,81
526,013	18,69
526,495	19,18
526,978	19,39
527,46	19,79
527,942	20,04
528,424	20,42
528,906	19,93
529,388	20,29
529,87	20,77
530,351	21,12
530,833	21,09
531,314	21,29
531,795	21,64
532,277	21,46
532,758	21,57
533,238	21,71
533,719	22,23
534,2	22,22
534,681	22,13
535,161	22,31
535,642	22,84
536,122	22,94
536,602	23,08
537,082	23,02
537,562	22,83
538,042	22,94
538,522	23,16
539,001	23,28
539,481	22,86
539,96	23,36
540,44	23,97
540,919	23,67
541,398	23,71
541,877	23,66
542,356	23,55
542,835	23,29
543,313	23,24
543,792	23,97
544,27	23,76
544,749	23,39
545,227	23,73
545,705	23,85
546,183	24,21
546,661	23,96
547,139	23,9
547,616	24,17
548,094	24,21
548,571	24,39
549,049	24,42
549,526	23,79
550,003	24,28
550,48	24,54
550,957	24,17
551,434	23,96
551,911	24,5
552,387	24,2
552,864	24,54
553,34	24,36
553,817	24,62
554,293	24,39
554,769	24,64
555,245	24,55
555,721	24,26
556,197	23,95
556,672	24,48
557,148	24,42
557,623	24,16
558,099	24,41
558,574	24,06
559,049	24,23
559,524	23,84
559,999	24,1
560,474	23,49
560,948	23,77
561,423	23,46
561,897	23,71
562,372	23,46
562,846	23,57
563,32	23,5
563,794	23,63
564,268	23,1
564,742	23,08
565,216	23,11
565,69	22,57
566,163	22,41
566,636	22,74
567,11	22,03
567,583	22,22
568,056	21,81
568,529	21,5
569,002	21,52
569,475	21,38
569,947	21,27
570,42	21,01
570,892	20,85
571,365	20,57
571,837	20,2
572,309	19,8
572,781	19,83
573,253	19,69
573,725	19,66
574,197	19,36
574,668	19,3
575,14	19,34
575,611	18,92
576,082	18,92
576,554	18,85
577,025	18,52
577,496	18,48
577,967	18,25
578,437	17,85
578,908	18,15
579,379	17,97
579,849	17,65
580,319	17,45
580,79	17,35
581,26	17,5
581,73	17,15
582,2	17,07
582,669	17,22
583,139	16,77
583,609	16,74
584,078	16,46
584,548	16,52
585,017	16,41
585,486	16,1
585,955	16,28
586,424	15,86
586,893	15,93
587,362	15,74
587,83	15,93
588,299	15,72
588,767	15,44
589,236	15,39
589,704	15,24
590,172	15,37
590,64	15,39
591,108	15,26
591,576	15,16
592,043	15,08
592,511	14,65
592,978	14,58
593,446	15,01
593,913	15,16
594,38	14,7
594,847	14,75
595,314	14,78
595,781	14,68
596,248	14,6
596,715	14,65
597,181	14,81
597,647	14,21
598,114	14,47
598,58	14,27
599,046	14,19
599,512	14,36
599,978	14,41
600,444	14,25
600,91	14,15
601,375	14,25
601,841	14,17
602,306	14,25
602,771	14,07
603,236	14,1
603,702	13,87
604,167	14,02
604,631	13,78
605,096	13,72
605,561	13,65
606,025	13,55
606,49	13,67
606,954	13,26
607,418	13,45
607,882	13,36
608,347	13,25
608,81	13,32
609,274	13,07
609,738	13,23
610,202	13,01
610,665	12,89
611,128	12,9
611,592	12,68
612,055	12,68
612,518	12,63
612,981	12,43
613,444	12,48
613,907	12,22
614,369	12,27
614,832	12,02
615,294	12,21
615,757	12,03
616,219	11,72
616,681	11,79
617,143	11,64
617,605	11,76
618,067	11,68
618,529	11,58
618,99	11,42
619,452	11,48
619,913	11,27
620,375	11,22
620,836	11,29
621,297	11,24
621,758	11,12
622,219	11
622,68	11,1
623,14	11,03
623,601	10,8
624,061	10,81
624,522	10,83
624,982	10,72
625,442	10,85
625,902	10,77
626,362	10,8
626,822	10,71
627,282	10,7
627,742	10,65
628,201	10,9
628,661	10,56
629,12	10,52
629,579	10,51
630,038	10,47
630,497	10,58
630,956	10,65
631,415	10,58
631,874	10,44
632,332	10,64
632,791	10,42
633,249	10,34
633,708	10,39
634,166	10,18
634,624	10,2
635,082	10,13
635,54	10,03
635,998	9,86
636,455	9,8
636,913	9,86
637,37	9,71
637,828	9,57
638,285	9,53
638,742	9,52
639,199	9,3
639,656	9,19
640,113	8,95
640,57	8,76
641,027	8,7
641,483	8,81
641,94	8,73
642,396	8,52
642,852	8,46
643,309	8,12
643,765	8,17
644,221	8,12
644,676	8,07
645,132	7,86
645,588	7,76
646,043	7,57
646,499	7,44
646,954	7,53
647,409	7,32
647,864	7,28
648,319	7,09
648,774	7,04
649,229	7,08
649,684	6,87
650,139	6,93
650,593	6,8
651,047	6,88
651,502	6,92
651,956	6,84
652,41	6,7
652,864	6,79
653,318	6,67
653,772	6,62
654,225	6,47
654,679	6,62
655,133	6,41
655,586	6,49
656,039	6,36
656,492	6,45
656,946	6,32
657,399	6,3
657,851	6,36
658,304	6,2
658,757	6,02
659,209	6,18
659,662	6,05
660,114	5,89
660,567	5,91
661,019	5,75
661,471	5,75
661,923	5,77
662,375	5,63
662,826	5,7
663,278	5,65
663,73	5,49
664,181	5,42
664,632	5,47
665,084	5,4
665,535	5,36
665,986	5,38
666,437	5,38
666,888	5,32
667,338	5,2
667,789	5,3
668,24	5,3
668,69	5,3
669,14	5,18
669,591	5,23
670,041	5,29
670,491	5,26
670,941	5,29
671,391	5,39
671,84	5,33
672,29	5,54
672,74	5,46
673,189	5,61
673,638	5,56
674,088	5,7
674,537	5,78
674,986	5,75
675,435	5,84
675,883	5,9
676,332	5,98
676,781	6,01
677,229	6,11
677,678	6,22
678,126	6,25
678,574	6,28
679,022	6,39
679,47	6,67
679,918	6,63
680,366	6,76
680,814	6,89
681,261	7,02
681,709	7,18
682,156	7,38
682,604	7,36
683,051	7,4
683,498	7,53
683,945	7,68
684,392	7,71
684,839	7,86
685,286	8,01
685,732	8,14
686,179	8,21
686,625	8,33
687,071	8,71
687,518	8,82
687,964	8,89
688,41	9,03
688,856	9,28
689,301	9,48
689,747	9,82
690,193	10,2
690,638	10,56
691,084	10,63
691,529	11,2
691,974	11,62
692,419	11,81
692,864	12,45
693,309	12,83
693,754	13,28
694,199	13,77
694,643	14,36
695,088	14,85
695,532	15,43
695,977	15,78
696,421	16,57
696,865	16,99
697,309	17,66
697,753	18,04
698,197	18,76
698,64	19,35
699,084	19,75
699,527	20,69
699,971	21,03
700,414	21,64
700,857	22,21
701,3	22,72
701,743	23,31
702,186	23,77
702,629	24,31
703,072	25,27
703,515	25,65
703,957	26,13
704,399	26,73
704,842	27,18
705,284	27,62
705,726	28,31
706,168	28,59
706,61	29,31
707,052	29,61
707,494	30,27
707,935	31,01
708,377	31,45
708,818	31,96
709,26	32,38
709,701	32,69
710,142	33,26
710,583	33,54
711,024	33,83
711,465	34,51
711,905	34,87
712,346	35,43
712,787	35,55
713,227	36,2
713,667	36,98
714,108	37,1
714,548	37,83
714,988	37,95
715,428	38,18
715,868	38,73
716,307	38,96
716,747	39,23
717,186	40,06
717,626	40,21
718,065	40,48
718,504	40,98
718,944	41,79
719,383	41,44
719,822	41,71
720,261	42,11
720,699	42,67
721,138	43,09
721,576	43,37
722,015	43,51
722,453	43,78
722,892	43,95
723,33	44,11
723,768	44,82
724,206	44,5
724,644	45,51
725,081	45,31
725,519	45,56
725,957	45,94
726,394	45,97
726,832	46,46
727,269	46,86
727,706	46,58
728,143	47,21
728,58	46,8
729,017	47,44
729,454	47,23
729,89	47,77
730,327	47,71
730,764	47,94
731,2	48,09
731,636	48,22
732,072	48,43
732,509	48,59
732,945	48,9
733,38	48,69
733,816	48,65
734,252	49,2
734,688	49,33
735,123	49,38
735,559	49,04
735,994	49,15
736,429	49,06
736,864	49,69
737,299	49,46
737,734	49,8
738,169	49,89
738,604	49,53
739,038	50,07
739,473	50,17
739,907	49,91
740,342	50
740,776	50,41
741,21	49,97
741,644	50,01
742,078	50,16
742,512	50,55
742,946	49,92
743,379	50,48
743,813	49,98
744,246	50,07
744,68	50,36
745,113	49,9
745,546	50,52
745,979	50,34
746,412	50,05
746,845	50,1
747,278	50,45
747,711	50,25
748,143	50,01
748,576	49,82
749,008	50,2
749,441	49,87
749,873	50,09
750,305	50,08
750,737	49,74
751,169	49,45
751,601	50,29
752,032	50,13
752,464	49,79
752,896	49,61
753,327	49,87
753,758	49,87
754,19	49,66
754,621	49,72
755,052	49,33
755,483	49,68
755,914	49,1
756,344	49,97
756,775	49,71
757,206	49,24
757,636	49,53
758,066	49,21
758,497	49,45
758,927	49,52
759,357	49,06
759,787	49,45
760,217	49,15
760,647	49,27
761,076	48,81
761,506	48,71
761,935	49,23
762,365	49,52
762,794	49,5
763,223	49,03
763,653	49,04
764,082	48,62
764,51	48,77
764,939	49,32
765,368	48,86
765,797	48,79
766,225	48,64
766,654	48,67
767,082	48,79
767,51	48,56
767,938	48,28
768,367	48,57
768,795	48,45
769,222	48,14
769,65	48,55
770,078	48,55
770,505	48,36
770,933	47,91
771,36	48,49
771,788	48,23
772,215	48,67
772,642	48,57
773,069	48,16
773,496	48,15
773,923	48,13
774,349	47,87
774,776	48,11
775,203	48,11
775,629	48,33
776,055	48
776,482	48,13
776,908	47,97
777,334	48,1
777,76	47,92
778,186	47,97
778,611	47,72
779,037	47,84
779,463	47,86
779,888	47,54
780,314	47,99
780,739	47,68
781,164	48,08
781,589	47,42
782,014	47,35
782,439	47,95
782,864	47,57
783,289	47,54
783,713	48,08
784,138	47,56
784,562	47,98
784,987	47,72
785,411	47,86
785,835	47,67
786,259	47,43
786,683	47,63
787,107	47,64
787,531	47,42
787,954	47,41
788,378	47,24
788,802	47,44
789,225	47,7
789,648	47,52
790,071	47,6
790,495	47,19
790,918	47,58
791,34	47,87
791,763	47,44
792,186	47,46
792,609	47,13
793,031	47,41
793,454	47,54
793,876	47,57
794,298	47,56
794,721	47,46
795,143	47,2
795,565	47,31
795,986	47,31
796,408	47,1
796,83	47,16
797,252	47,04
797,673	47,36
798,094	47,07
798,516	47,66
798,937	47,43
799,358	47,48
799,779	47,29
800,2	46,96
800,621	46,9
801,042	47,21
801,462	47,1
801,883	46,88
802,303	47,43
802,724	47,1
803,144	47,14
803,564	46,78
803,984	47,34
804,404	46,91
804,824	47,27
805,244	46,85
805,664	46,87
806,084	47,2
806,503	47,15
806,923	46,75
807,342	47,09
807,761	46,71
808,18	47,15
808,599	46,72
809,018	46,93
809,437	46,94
809,856	46,89
810,275	47,25
810,693	47,19
811,112	46,88
811,53	46,78
811,949	46,93
812,367	46,92
812,785	46,96
813,203	47,02
813,621	46,77
814,039	46,72
814,457	46,72
814,874	46,76
815,292	47,01
815,709	46,85
816,127	46,89
816,544	47,08
816,961	46,86
817,378	47,16
817,795	47,29
818,212	46,1
818,629	46,92
819,046	46,96
819,462	47,18
819,879	46,94
820,295	46,89
820,712	46,62
821,128	46,7
821,544	46,58
821,96	46,54
822,376	46,64
822,792	46,98
823,208	46,73
823,624	46,53
824,039	46,43
824,455	46,87
824,87	46,73
825,286	46,97
825,701	46,85
826,116	46,31
826,531	47,08
826,946	46,66
827,361	46,52
827,776	46,98
828,19	46,23
828,605	46,42
829,02	46,96
829,434	46,72
829,848	46,59
830,263	46,27
830,677	46,82
831,091	46,76
831,505	46,85
831,919	46,84
832,332	46,68
832,746	46,49
833,16	46,74
833,573	46,28
833,987	46,63
834,4	46,38
834,813	46,41
835,226	46,18
835,639	46,75
836,052	46,32
836,465	46,76
836,878	46,7
837,29	46,93
837,703	46,01
838,116	45,97
838,528	46,52
838,94	46,15
839,352	46,87
839,765	46,56
840,177	46,74
840,589	46,4
841	46,13
841,412	46,09
841,824	46,41
842,235	46,46
842,647	46,38
843,058	46,29
843,47	46,39
843,881	46,31
844,292	46,74
844,703	46,76
845,114	46,65
845,525	46,41
845,935	46,22
846,346	46,19
846,757	46,33
847,167	46,5
847,577	46,34
847,988	46,17
848,398	46,34
848,808	46,18
849,218	46,33
849,628	46,18
850,038	45,91
850,448	46,01
850,857	46,17
851,267	46,09
851,676	46,14
852,086	46,32
852,495	46,28
852,904	46,58
853,313	46,04
853,722	45,96
854,131	45,96
854,54	46,35
854,949	45,97
855,357	46,24
855,766	45,9
856,174	46,24
856,583	46,23
856,991	45,92
857,399	46,25
857,807	46,28
858,215	46,42
858,623	46,05
859,031	46,06
859,439	45,96
859,846	46,37
860,254	45,98
860,661	45,89
861,069	45,86
861,476	45,86
861,883	46,06
862,29	46,12
862,697	46,02
863,104	46,18
863,511	45,94
863,918	46,06
864,325	46,1
864,731	45,91
865,138	45,93
865,544	46,24
865,95	45,98
866,357	45,79
866,763	45,98
867,169	45,87
867,575	46
867,98	46,02
868,386	46,15
868,792	45,7
869,197	46,22
869,603	46,07
870,008	46,16
870,414	45,96
870,819	45,89
871,224	45,26
871,629	45,73
872,034	45,85
872,439	45,45
872,844	46,02
873,248	46,07
873,653	45,8
874,057	46,32
874,462	45,75
874,866	45,82
875,27	46,09
875,674	46,16
876,078	45,76
876,482	45,96
876,886	45,71
877,29	45,79
877,694	46,19
878,097	45,9
878,501	46,15
878,904	45,51
879,308	45,84
879,711	45,96
880,114	46,22
880,517	45,97
880,92	45,97
881,323	45,76
881,726	45,39
882,128	46,14
882,531	45,89
882,934	46,07
883,336	45,83
883,738	46,4
884,141	46,13
884,543	45,97
884,945	45,94
885,347	46,01
885,749	45,73
886,151	46
886,552	46,01
886,954	45,45
887,355	46,24
887,757	45,59
888,158	45,93
888,56	46,08
888,961	45,77
889,362	45,99
889,763	45,86
890,164	46,13
890,565	46,1
890,965	45,99
891,366	45,95
891,767	45,89
892,167	45,78
892,567	45,63
892,968	45,54
893,368	45,8
893,768	45,69
894,168	45,47
894,568	46,21
894,968	45,93
895,368	46
895,767	45,61
896,167	46,09
896,566	45,86
896,966	45,85
897,365	45,2
897,764	45,87
898,164	45,57
898,563	45,99
898,962	45,89
899,361	45,63
899,759	45,93
900,158	45,59
900,557	45,69
900,955	45,55
901,354	45,75
901,752	45,79
902,15	45,36
902,548	45,3
902,947	45,85
903,345	45,75
903,742	45,51
904,14	45,84
904,538	45,48
904,936	45,36
905,333	45,75
905,731	45,43
906,128	46,07
906,525	45,89
906,923	46,06
907,32	45,92
907,717	45,9
908,114	45,69
908,511	45,46
908,907	45,62
909,304	45,87
909,701	45,79
910,097	45,44
910,494	45,94
910,89	45,77
911,286	45,83
911,682	46,15
912,078	46,25
912,474	45,48
912,87	45,8
913,266	45,86
913,662	45,77
914,058	45,44
914,453	46,06
914,849	45,83
915,244	45,46
915,639	45,74
916,034	45,53
916,43	45,32
916,825	45,85
917,22	45,39
917,614	45,85
918,009	45,53
918,404	45,62
918,798	45,6
919,193	44,85
919,587	45,79
919,982	45,87
920,376	45,63
920,77	45,6
921,164	45,17
921,558	45,51
921,952	45,24
922,346	46
922,74	45,34
923,133	46,12
923,527	45,62
923,92	45,74
924,314	45,52
924,707	45,91
925,1	45,21
925,493	45,66
925,886	46,13
926,279	45,56
926,672	45,38
927,065	45,59
927,457	45,9
927,85	45,77
928,243	45,37
928,635	46,09
929,027	45,29
929,42	45,79
929,812	45,47
930,204	45,53
930,596	45,66
930,988	45,74
931,379	45,74
931,771	45,7
932,163	45,91
932,554	45,37
932,946	45,39
933,337	45,61
933,729	45,18
934,12	45,03
934,511	45,62
934,902	45,62
935,293	46,76
935,684	45,5
936,075	45,49
936,465	45,85
936,856	45,09
937,246	45,98
937,637	45,35
938,027	46,07
938,417	45,39
938,808	45,52
939,198	45,39
939,588	45,16
939,978	45,05
940,368	46,05
940,757	45,15
941,147	45,85
941,537	45,66
941,926	44,78
942,315	45,36
942,705	45,83
943,094	45,41
943,483	46,44
943,872	46,31
944,261	44,97
944,65	45,38
945,039	45,27
945,428	45,85
945,816	44,66
946,205	45,41
946,593	45,63
946,982	45,05
947,37	46,29
947,758	46,14
948,146	46,09
948,534	45,75
948,922	45,44
949,31	45,32
949,698	45,05
950,086	45,22
950,473	45,04
950,861	45,5
951,248	45,31
951,636	45,44
952,023	45,23
952,41	45,09
952,797	45,05
953,184	44,61
953,571	45,64
953,958	45,86
954,345	44,9
954,731	45,22
955,118	44,4
955,505	44,88
955,891	45,35
956,277	45,15
956,664	44,84
957,05	45,43
957,436	44,64
957,822	44,38
958,208	44,74
958,594	44,97
958,979	44,5
959,365	44,27
959,751	44,42
960,136	45,47
960,522	44,95
960,907	44,85
961,292	44,78
961,677	44,94
962,062	44,9
962,447	45,43
962,832	44,73
963,217	44,16
963,602	44,28
963,986	45,42
964,371	44,76
964,756	44,32
965,14	44,74
965,524	44,8
965,908	45,14
966,293	44,64
966,677	44,87
967,061	45,26
967,445	44,76
967,828	45,03
968,212	44,66
968,596	45,41
968,979	44,43
969,363	45,44
969,746	45,01
970,129	45,29
970,513	45,33
970,896	44,53
971,279	44,73
971,662	45,07
972,045	44,74
972,428	44,81
972,81	44,81
973,193	45,34
973,575	45,18
973,958	45,1
974,34	44,98
974,723	44,56
975,105	45,43
975,487	44,94
975,869	44,87
976,251	45,25
976,633	45,12
977,015	45,24
977,396	44,47
977,778	45,14
978,16	44,83
978,541	43,96
978,922	45,39
979,304	44,66
979,685	44,57
980,066	45,19
980,447	44,15
980,828	44,74
981,209	45,6
981,59	44,41
981,97	44,37
982,351	45,36
982,732	45,21
983,112	44,73
983,493	44,63
983,873	44,85
984,253	45,72
984,633	45,09
985,013	44,81
985,393	45,7
985,773	45,8
986,153	45,27
986,533	44,4
986,912	44,89
987,292	45,1
987,671	44,55
988,051	45,66
988,43	45,08
988,809	45,14
989,188	44,35
989,567	44,35
989,946	44,98
990,325	44,62
990,704	45,85
991,083	44,42
991,461	44,67
991,84	45,25
992,218	44,37
992,597	44,55
992,975	44,53
993,353	45,09
993,732	44,89
994,11	44,41
994,488	44,61
994,866	44,88
995,243	44,62
995,621	44,4
995,999	45,01
996,376	45,22
996,754	45,13
997,131	45,63
997,509	44,96
997,886	44,96
998,263	45,36
998,64	45,07
999,017	44,76
999,394	45,35
999,771	45,4
1000,148	45,61
1000,524	45,4
1000,901	45,21
1001,277	45,23
1001,654	45,05
1002,03	45,29
1002,406	44,78
1002,783	45,39
1003,159	45,51
1003,535	45,19
1003,911	45,11
1004,286	45,16
1004,662	45,18
1005,038	45,8
1005,414	45,29
1005,789	45,45
1006,164	45,61
1006,54	45,2
1006,915	45,01
1007,29	45,45
1007,665	45,46
1008,04	44,66
1008,415	45,44
1008,79	45,22
1009,165	45,75
1009,54	45,56
1009,914	45,62
1010,289	44,78
1010,663	46,19
1011,038	45,31
1011,412	45,02
1011,786	45,86
1012,16	46,3
1012,535	45,65
1012,909	45,28
1013,282	45,9
1013,656	45,65
1014,03	45,22
1014,404	45,58
1014,777	45,46
1015,151	45,88
1015,524	45,84
1015,897	44,91
1016,271	45,94
1016,644	45,13
1017,017	45,09
1017,39	45,44
1017,763	45,13
1018,136	45,93
1018,508	45,87
1018,881	45,57
1019,254	45,23
1019,626	45,42
1019,999	45,98
1020,371	45,45
1020,743	45,53
1021,116	45,23
1021,488	45,18
1021,86	45,63
1022,232	45,37
1022,604	45,48
1022,975	45,66
1023,347	46,2
1023,719	45,64
1024,09	45,35
1024,462	46,21
1024,833	46,04
1025,204	45,83
1025,576	45,23
1025,947	45,84
1026,318	44,65
1026,689	45,62
1027,06	45,69
1027,431	46,67
1027,801	45,97
1028,172	46,42
1028,543	45,63
1028,913	45,56
1029,284	45,52
1029,654	45,32
1030,024	45
1030,394	45,51
1030,764	46,53
1031,135	45,9
1031,504	45,98
1031,874	45,93
1032,244	46,48
1032,614	45,63
1032,983	45,83
1033,353	46,3
1033,722	45,51
1034,092	45,77
1034,461	45,84
1034,83	46,38
1035,2	46,77
1035,569	45,39
1035,938	46,79
1036,307	45,56
1036,675	45,97
1037,044	45,98
1037,413	46,56
1037,781	46,01
1038,15	45,89
1038,518	45,76
1038,887	46,62
1039,255	46,63
1039,623	46,49
1039,991	47,8
1040,359	46,48
1040,727	45,25
1041,095	45,37
1041,463	46,09
1041,831	46,21
1042,198	46,29
1042,566	46,59
1042,933	46,09
1043,301	46,6
1043,668	47,04
1044,035	45,18
1044,402	46,35
1044,77	45,74
1045,137	47,83
1045,503	46,75
1045,87	46,06
1046,237	45,72
1046,604	46,87
1046,97	47,35
1047,337	45,7
1047,703	46,41
1048,07	46,24
1048,436	45,47
1048,802	46,89
1049,168	48,68
1049,534	46,64
1049,9	46,36
1050,266	47,99
1050,632	46,32
1050,998	46,08
1051,364	47,27
1051,729	46,88
1052,095	46,56
1052,46	47,71
1052,825	45,89
1053,191	47,28
1053,556	46,32
1053,921	45,94
1054,286	46,99
1054,651	46,26
1055,016	47,23
1055,381	46,34
1055,745	46,59
1056,11	46,36
1056,475	46,02
1056,839	46,71
1057,203	45,8
1057,568	47,64
1057,932	46,41
1058,296	47,25
1058,66	47,5
1059,024	46,09
1059,388	46,81
1059,752	48,84
1060,116	47,04
1060,48	46,94
1060,843	46,88
1061,207	46,85
1061,57	47,2
1061,934	49,53
1062,297	47,51
1062,66	47,29
1063,023	48,48
1063,386	47,93
1063,749	46,05
1064,112	47,58
1064,475	47,58
1064,838	48,41
1065,201	46,69
1065,563	47,12
1065,926	49,09
1066,288	47,67
1066,651	49,68
1067,013	49,2
1067,375	47,42
1067,737	48,98
1068,099	47,08
1068,461	48,02
1068,823	48,41
1069,185	46,79
1069,547	47,51
1069,909	47,53
1070,27	45,37
1070,632	48,38
1070,993	47,93
1071,355	47,77
1071,716	47,18
1072,077	47,29
1072,438	46,66
1072,799	47,69
1073,16	47,99
1073,521	47,58
1073,882	46,02
1074,243	47,2
1074,603	48,2
1074,964	46,98
1075,325	48,7
1075,685	47,17
1076,045	45,82
1076,406	48,42
1076,766	48,21
1077,126	48,24
1077,486	49,18
1077,846	47,62
1078,206	48,23
1078,566	48,56
1078,925	48,11
1079,285	47,25
1079,645	48,08
1080,004	50,32
1080,364	49,13
1080,723	47,34
1081,082	49,19
1081,442	50,21
1081,801	46,89
1082,16	47,37
1082,519	50,64
1082,878	48,41
1083,237	48,82
1083,595	50,28
1083,954	47,67
1084,313	49,74
1084,671	49,83
1085,03	50,44
1085,388	47,37
1085,746	51,42
1086,104	48,48
1086,463	48,62
1086,821	49,3
1087,179	48,65
1087,537	48,35
1087,894	49,63
1088,252	47,04
1088,61	49,09
1088,967	48,72
1089,325	52,15
1089,682	50,17
1090,04	50,17
1090,397	50,96
1090,754	48,96
1091,111	48,97
1091,469	50,32
1091,826	48,15
1092,182	49,27
1092,539	50,06
1092,896	48,88
1093,253	46,77
1093,609	49,88
1093,966	50,76
1094,322	46,7
1094,679	48,85
1095,035	50,86
1095,391	48,08
1095,748	54,04
1096,104	49,15
1096,46	49,53
1096,816	50,76
1097,171	50,61
1097,527	50,52
1097,883	51,1
1098,239	50,47
1098,594	49,47
1098,95	52,97
1099,305	51,03
1099,66	52,72
1100,016	49,93
1100,371	52,08
1100,726	49,25
1101,081	48,48
1101,436	49,65
1101,791	52,7
1102,146	51,84
1102,5	47,43
1102,855	52,57
1103,21	53,59
1103,564	51,82
1103,918	50,21
1104,273	51,34
1104,627	51,15
1104,981	51,88
1105,335	50,62
1105,69	50,99
1106,043	51,99
1106,397	53,77
1106,751	54,07
1107,105	54,27
1107,459	53,27
1107,812	53,44
1108,166	53,93
1108,519	54,83
1108,873	50,21
1109,226	56,74
1109,579	57,22
1109,932	56,21
1110,285	53,47
1110,638	55,35
1110,991	50,88
1111,344	53,78
1111,697	54,05
1112,05	54,19
1112,402	55,13
1112,755	51,8
1113,107	56,92
1113,46	59,12
1113,812	55,61
1114,164	58,82
1114,517	56,87
1114,869	151,67
1115,221	145,9
1115,573	155,38
1115,924	130,99
