Data from G2__Relative__8__00086.txt Node

Date: Thu Feb 01 16:24:52 CET 2024
User: diatiterra
Spectrometer: HDX00911
Trigger mode: 0
Integration Time (sec): 6,000000E-3
Scans to average: 2
Nonlinearity correction enabled: false
Boxcar width: 0
Storing dark spectrum: false
XAxis mode: Wavelengths
Number of Pixels in Spectrum: 2068
>>>>>Begin Spectral Data<<<<<
194,468	193,85
195,025	104,17
195,581	146,97
196,138	110,29
196,694	112,09
197,251	114,29
197,807	83,72
198,363	73,37
198,919	76,09
199,474	78,98
200,03	81,25
200,586	84,81
201,141	72,68
201,696	79,19
202,251	76,24
202,806	81,61
203,361	78,14
203,916	84,32
204,471	75
205,025	83,24
205,58	76,3
206,134	71,81
206,688	80,1
207,242	81,4
207,796	70,2
208,35	75
208,904	78,53
209,457	82,35
210,011	90,18
210,564	77,96
211,117	102,61
211,67	84,27
212,223	89,18
212,776	77,54
213,329	77,54
213,881	69,95
214,434	72,5
214,986	86,14
215,538	80,98
216,09	73,96
216,642	96,39
217,194	75,29
217,746	84,57
218,297	85,56
218,849	86,63
219,4	77,78
219,951	86,86
220,502	76,92
221,053	72,62
221,604	85,8
222,155	86,63
222,705	76,61
223,256	80,9
223,806	79,43
224,356	72,68
224,906	91,52
225,456	73,26
226,006	72,13
226,556	80,54
227,106	78,05
227,655	81,68
228,204	75,14
228,754	81,61
229,303	72,35
229,852	83,89
230,401	83,95
230,949	94,92
231,498	81,91
232,047	72,22
232,595	84,48
233,143	73,16
233,691	66,48
234,239	76,5
234,787	85,47
235,335	86,05
235,883	73,16
236,43	76,77
236,978	79,26
237,525	70,35
238,072	78,89
238,619	89,02
239,166	76,47
239,713	84,36
240,26	93,57
240,806	90,18
241,353	84,88
241,899	76,92
242,445	82,84
242,991	68,65
243,537	86,93
244,083	81,87
244,629	75,5
245,174	82,18
245,72	76,54
246,265	67,02
246,81	81,25
247,355	76,92
247,9	80
248,445	87,9
248,99	77,22
249,534	80,9
250,079	87,95
250,623	77,17
251,168	79,89
251,712	95,29
252,256	98,76
252,8	75,71
253,343	91,76
253,887	72,68
254,43	78,41
254,974	83,8
255,517	85,88
256,06	81,82
256,603	80,9
257,146	76,24
257,689	68,25
258,232	75,13
258,774	82,74
259,317	77,47
259,859	83,77
260,401	71,91
260,943	91,72
261,485	84,32
262,027	80,95
262,569	90,07
263,11	79,1
263,652	82,42
264,193	74,43
264,734	78,36
265,275	77,6
265,816	70,27
266,357	79,89
266,898	64,14
267,438	87,34
267,979	72,73
268,519	79,76
269,059	73,49
269,6	75,41
270,14	76,53
270,68	80,82
271,219	81,61
271,759	94,23
272,298	86,49
272,838	84,21
273,377	74,3
273,916	91,95
274,455	82,56
274,994	72,22
275,533	83,83
276,072	80,24
276,61	82,84
277,149	82,94
277,687	75,3
278,225	78,82
278,763	78,61
279,301	73,4
279,839	85,11
280,377	77,02
280,914	74,23
281,452	85,47
281,989	80,59
282,526	89,87
283,064	78,12
283,601	83,71
284,137	87,12
284,674	84,27
285,211	74,19
285,747	84,92
286,284	71,76
286,82	78,12
287,356	77,32
287,892	88,4
288,428	79,31
288,964	78,49
289,5	83,82
290,035	72,73
290,571	71,96
291,106	82,02
291,641	80,23
292,176	81,72
292,711	82,56
293,246	74,46
293,781	77,35
294,315	67,86
294,85	83,87
295,384	86,71
295,918	72,34
296,453	75,14
296,987	71,58
297,52	71,2
298,054	83,91
298,588	95,73
299,121	77,65
299,655	87,06
300,188	83,33
300,721	81,99
301,254	74,6
301,787	78,49
302,32	79,79
302,853	74,86
303,385	87,5
303,918	84,57
304,45	77,04
304,982	79,1
305,514	80,85
306,046	66,3
306,578	83,42
307,11	79,01
307,641	84,07
308,173	73,6
308,704	84,09
309,236	68,02
309,767	69,47
310,298	83,02
310,829	77
311,359	77,29
311,89	85,96
312,421	77,84
312,951	71,43
313,481	70,59
314,012	75
314,542	71,81
315,072	87,85
315,601	93,51
316,131	79,26
316,661	82,95
317,19	72,25
317,72	82,53
318,249	83,89
318,778	91,16
319,307	91,67
319,836	88,7
320,365	73,54
320,893	85,49
321,422	83,93
321,95	81,25
322,479	96,97
323,007	76,4
323,535	84,97
324,063	84,18
324,591	74,6
325,118	84,41
325,646	77,66
326,173	77,6
326,701	73,85
327,228	75,92
327,755	74,62
328,282	69,27
328,809	86,47
329,336	78,11
329,862	80
330,389	77,84
330,915	82,9
331,441	73,68
331,968	89,89
332,494	71,43
333,02	86,03
333,545	61,38
334,071	72,31
334,597	73,6
335,122	73,94
335,648	63,46
336,173	65,95
336,698	75,53
337,223	68,45
337,748	67,66
338,272	61,7
338,797	73,77
339,322	68,11
339,846	76,34
340,37	74,32
340,894	62,69
341,419	77,01
341,942	70,9
342,466	69,95
342,99	64,92
343,514	69,61
344,037	69,68
344,56	61,24
345,084	72,64
345,607	64,08
346,13	66,67
346,653	59,81
347,175	63,16
347,698	70,85
348,221	60,56
348,743	56,3
349,265	65,02
349,787	53,66
350,309	53,85
350,831	63,6
351,353	65,4
351,875	59,51
352,397	54,74
352,918	65,42
353,439	63,29
353,961	53,54
354,482	57,45
355,003	58,02
355,524	59,26
356,044	64,73
356,565	52,44
357,086	48,31
357,606	47,66
358,126	49,81
358,646	51,67
359,167	54,78
359,687	52,79
360,206	55,19
360,726	48,64
361,246	52,83
361,765	46,38
362,285	55,02
362,804	53,96
363,323	51,42
363,842	47,89
364,361	45,62
364,88	45,63
365,398	49,12
365,917	49,38
366,435	52,33
366,954	50,81
367,472	47,47
367,99	49,35
368,508	47,33
369,026	44,23
369,544	48,74
370,061	46,88
370,579	45,99
371,096	43,53
371,613	52,42
372,131	44,64
372,648	49,86
373,165	46,3
373,681	48,8
374,198	43,84
374,715	49
375,231	46,33
375,747	44,71
376,264	44,65
376,78	42,64
377,296	38,7
377,812	40,51
378,327	43,86
378,843	43,48
379,359	42,92
379,874	44,67
380,389	38,6
380,905	41,51
381,42	39,11
381,935	39,45
382,449	37,81
382,964	35,55
383,479	38,07
383,993	39,13
384,508	37,22
385,022	36,94
385,536	38,58
386,05	37,66
386,564	38,72
387,078	33,33
387,592	32,02
388,105	33,22
388,619	32
389,132	31,56
389,645	33,76
390,158	33,92
390,671	32,62
391,184	30,43
391,697	31,46
392,21	29,95
392,722	30,54
393,235	31,31
393,747	28,63
394,259	30
394,771	32,2
395,283	30,34
395,795	30,15
396,307	24,75
396,818	26,09
397,33	28,31
397,841	29,68
398,353	26,67
398,864	27,91
399,375	26,06
399,886	25,14
400,397	25
400,907	24,04
401,418	23,95
401,928	22,41
402,439	25,05
402,949	21,78
403,459	22,98
403,969	21,61
404,479	20,29
404,989	19,62
405,498	19
406,008	19,36
406,517	18,79
407,027	17,46
407,536	18,25
408,045	16,97
408,554	17,1
409,063	16,15
409,572	15,07
410,08	14,49
410,589	13,94
411,097	14,28
411,606	13,31
412,114	13,38
412,622	11,88
413,13	12,24
413,638	11,75
414,145	10,51
414,653	11,04
415,16	10,91
415,668	10,24
416,175	9,92
416,682	10,44
417,189	10,04
417,696	9,58
418,203	10,31
418,71	8,99
419,216	10,01
419,723	9,17
420,229	9,04
420,735	9,25
421,242	9,15
421,748	8,54
422,254	8,35
422,759	8,43
423,265	8,69
423,771	8,4
424,276	7,69
424,781	8,96
425,287	7,78
425,792	8,44
426,297	8,08
426,802	7,88
427,306	7,75
427,811	7,39
428,316	7,78
428,82	7,27
429,324	7,13
429,829	7,54
430,333	7,49
430,837	6,93
431,34	7,74
431,844	7,49
432,348	7,36
432,851	6,78
433,355	7,03
433,858	7,49
434,361	7,37
434,864	7,3
435,367	6,96
435,87	7,06
436,373	7,14
436,876	6,93
437,378	6,78
437,88	6,81
438,383	6,58
438,885	7,11
439,387	6,57
439,889	6,87
440,391	6,64
440,892	6,89
441,394	6,94
441,896	6,97
442,397	6,68
442,898	6,74
443,399	6,44
443,9	6,51
444,401	6,93
444,902	7,2
445,403	6,77
445,903	6,64
446,404	7,08
446,904	6,75
447,405	6,52
447,905	7,05
448,405	7,07
448,905	6,46
449,404	6,79
449,904	7
450,404	6,94
450,903	6,98
451,403	7,35
451,902	7
452,401	7,48
452,9	7,22
453,399	7,13
453,898	6,77
454,396	7,29
454,895	7,02
455,393	6,95
455,892	6,83
456,39	7,1
456,888	6,6
457,386	7,27
457,884	6,86
458,382	7,02
458,879	7,38
459,377	7,38
459,874	7,07
460,372	7,06
460,869	7,18
461,366	6,83
461,863	7,36
462,36	7,32
462,857	7,24
463,353	6,91
463,85	6,85
464,346	6,89
464,843	7,14
465,339	6,87
465,835	7,04
466,331	6,86
466,827	7,32
467,323	7,08
467,818	7,19
468,314	6,95
468,809	6,99
469,305	6,88
469,8	7,09
470,295	7,07
470,79	6,83
471,285	7,33
471,78	7,16
472,274	6,97
472,769	6,72
473,263	6,81
473,758	7,13
474,252	6,86
474,746	7,02
475,24	7,07
475,734	6,93
476,228	7,14
476,721	6,77
477,215	7,17
477,708	6,97
478,202	6,99
478,695	7,16
479,188	6,9
479,681	7,22
480,174	7,15
480,667	6,8
481,159	7,36
481,652	6,96
482,144	7,31
482,637	7,04
483,129	6,83
483,621	7,46
484,113	7,39
484,605	7,17
485,097	7,31
485,588	7,33
486,08	7,36
486,571	7,22
487,063	7,32
487,554	7,25
488,045	7,19
488,536	7,5
489,027	7,3
489,518	7,52
490,008	7,72
490,499	7,45
490,989	7,56
491,48	7,81
491,97	7,78
492,46	7,71
492,95	7,88
493,44	8,25
493,93	7,91
494,419	8,16
494,909	7,89
495,398	8,62
495,888	8,18
496,377	8,46
496,866	8,6
497,355	8,29
497,844	8,69
498,333	8,65
498,821	8,85
499,31	8,8
499,798	8,99
500,287	9,21
500,775	9,47
501,263	9,42
501,751	9,27
502,239	9,64
502,727	9,74
503,215	9,83
503,702	10,15
504,19	10
504,677	10,28
505,164	10,45
505,651	10,58
506,139	10,85
506,625	11,47
507,112	11,23
507,599	11,26
508,086	11,45
508,572	11,63
509,058	12,21
509,545	12,07
510,031	12,52
510,517	12,62
511,003	12,48
511,489	13,12
511,974	12,89
512,46	13,67
512,946	13,75
513,431	14
513,916	14,34
514,401	14,36
514,887	14,75
515,371	15,21
515,856	15,31
516,341	15,79
516,826	16,02
517,31	15,8
517,795	16,5
518,279	16,49
518,763	17,35
519,247	17,32
519,731	17,69
520,215	18,13
520,699	18,01
521,182	18,45
521,666	18,5
522,149	18,94
522,633	19,04
523,116	19,3
523,599	20,25
524,082	20,16
524,565	20,99
525,048	20,14
525,53	20,93
526,013	21,45
526,495	21,34
526,978	21,11
527,46	21,83
527,942	22,63
528,424	22,28
528,906	21,96
529,388	22,8
529,87	23,01
530,351	23,25
530,833	23,37
531,314	23,94
531,795	23,74
532,277	23,8
532,758	23,97
533,238	23,22
533,719	24,16
534,2	24,64
534,681	23,85
535,161	24,37
535,642	24,1
536,122	24,82
536,602	24,58
537,082	24,73
537,562	25,03
538,042	25,25
538,522	25,07
539,001	25,53
539,481	24,8
539,96	25,11
540,44	25,63
540,919	24,98
541,398	25,89
541,877	25,5
542,356	25,63
542,835	25,43
543,313	25,51
543,792	25,43
544,27	26,1
544,749	25
545,227	25,31
545,705	26,04
546,183	25,7
546,661	25,5
547,139	26,11
547,616	25,48
548,094	25,75
548,571	26,2
549,049	25,8
549,526	26
550,003	26,01
550,48	26,17
550,957	26,17
551,434	26,02
551,911	26,25
552,387	26,53
552,864	26,17
553,34	26,62
553,817	26,19
554,293	26,2
554,769	26,04
555,245	26,3
555,721	26,12
556,197	25,94
556,672	26,13
557,148	26,44
557,623	25,88
558,099	25,93
558,574	26,12
559,049	25,88
559,524	25,65
559,999	26,08
560,474	25,68
560,948	25,61
561,423	25,3
561,897	25,55
562,372	25,79
562,846	25,66
563,32	25,76
563,794	25,61
564,268	25,18
564,742	25,16
565,216	24,71
565,69	25,09
566,163	24,62
566,636	24,77
567,11	24,44
567,583	24,4
568,056	24,24
568,529	24,04
569,002	23,97
569,475	23,89
569,947	23,67
570,42	23,6
570,892	23,2
571,365	23,36
571,837	22,88
572,309	22,44
572,781	22,8
573,253	22,44
573,725	22,39
574,197	22,27
574,668	21,99
575,14	21,92
575,611	21,98
576,082	21,71
576,554	22,06
577,025	21,37
577,496	21,04
577,967	20,87
578,437	20,81
578,908	20,89
579,379	20,41
579,849	20,32
580,319	20,35
580,79	20,26
581,26	19,79
581,73	20,11
582,2	20,12
582,669	19,95
583,139	19,56
583,609	19,61
584,078	19,11
584,548	19,21
585,017	18,9
585,486	19,04
585,955	19,46
586,424	19,17
586,893	18,99
587,362	18,95
587,83	18,63
588,299	18,64
588,767	18,7
589,236	18,4
589,704	18,5
590,172	18,47
590,64	18,52
591,108	18,19
591,576	18,19
592,043	17,81
592,511	17,92
592,978	18,26
593,446	17,86
593,913	18,12
594,38	17,82
594,847	18,01
595,314	17,91
595,781	17,75
596,248	17,9
596,715	17,73
597,181	17,83
597,647	17,71
598,114	17,67
598,58	17,45
599,046	17,4
599,512	17,63
599,978	17,31
600,444	17,44
600,91	17,33
601,375	16,92
601,841	17,28
602,306	17,19
602,771	17,17
603,236	16,96
603,702	17,13
604,167	16,87
604,631	17,08
605,096	16,88
605,561	16,81
606,025	16,89
606,49	16,63
606,954	16,58
607,418	16,4
607,882	16,53
608,347	16,58
608,81	16,84
609,274	16,04
609,738	16,02
610,202	16,2
610,665	15,88
611,128	15,93
611,592	16,2
612,055	15,88
612,518	15,69
612,981	15,62
613,444	15,32
613,907	15,57
614,369	15,26
614,832	15,29
615,294	15,15
615,757	14,87
616,219	14,8
616,681	14,87
617,143	14,79
617,605	14,65
618,067	14,72
618,529	14,5
618,99	14,78
619,452	14,63
619,913	14,41
620,375	14,36
620,836	14,38
621,297	14,1
621,758	14,22
622,219	14,15
622,68	14,22
623,14	14,11
623,601	13,96
624,061	13,95
624,522	13,91
624,982	14,07
625,442	13,87
625,902	13,93
626,362	13,94
626,822	13,99
627,282	13,81
627,742	13,68
628,201	13,83
628,661	13,67
629,12	13,72
629,579	13,53
630,038	13,51
630,497	13,58
630,956	13,73
631,415	13,52
631,874	13,5
632,332	13,31
632,791	13,3
633,249	13,38
633,708	13,5
634,166	13,34
634,624	13,51
635,082	13,32
635,54	13,24
635,998	13,07
636,455	13,11
636,913	12,89
637,37	12,8
637,828	12,82
638,285	12,71
638,742	12,45
639,199	12,45
639,656	12,42
640,113	12,11
640,57	12,08
641,027	11,97
641,483	12,03
641,94	11,74
642,396	11,61
642,852	11,36
643,309	11,39
643,765	11,28
644,221	11,21
644,676	11,04
645,132	10,91
645,588	10,92
646,043	10,81
646,499	10,56
646,954	10,45
647,409	10,36
647,864	10,3
648,319	10,27
648,774	10,16
649,229	10,08
649,684	9,81
650,139	9,82
650,593	9,69
651,047	9,57
651,502	9,65
651,956	9,79
652,41	9,59
652,864	9,7
653,318	9,42
653,772	9,4
654,225	9,47
654,679	9,39
655,133	9,34
655,586	9,18
656,039	9,08
656,492	9,07
656,946	8,93
657,399	8,9
657,851	8,95
658,304	8,91
658,757	8,71
659,209	8,78
659,662	8,44
660,114	8,47
660,567	8,26
661,019	8,37
661,471	8,22
661,923	8,05
662,375	8,17
662,826	8,06
663,278	7,85
663,73	7,81
664,181	7,79
664,632	7,78
665,084	7,56
665,535	7,64
665,986	7,54
666,437	7,44
666,888	7,33
667,338	7,45
667,789	7,32
668,24	7,43
668,69	7,34
669,14	7,15
669,591	7,26
670,041	7,13
670,491	7,28
670,941	7,35
671,391	7,36
671,84	7,33
672,29	7,32
672,74	7,36
673,189	7,46
673,638	7,44
674,088	7,51
674,537	7,63
674,986	7,53
675,435	7,46
675,883	7,56
676,332	7,67
676,781	7,75
677,229	7,9
677,678	7,84
678,126	8
678,574	8,18
679,022	8,17
679,47	8,33
679,918	8,38
680,366	8,65
680,814	8,59
681,261	8,79
681,709	8,99
682,156	9,06
682,604	8,99
683,051	9,26
683,498	9,39
683,945	9,5
684,392	9,55
684,839	9,91
685,286	10,05
685,732	10,16
686,179	10,18
686,625	10,53
687,071	10,64
687,518	10,97
687,964	11,13
688,41	11,34
688,856	11,47
689,301	11,81
689,747	12,12
690,193	12,56
690,638	12,88
691,084	13,24
691,529	13,75
691,974	14,16
692,419	14,38
692,864	14,91
693,309	15,42
693,754	15,87
694,199	16,37
694,643	16,69
695,088	17,29
695,532	17,87
695,977	18,45
696,421	19,02
696,865	19,45
697,309	19,89
697,753	20,19
698,197	20,97
698,64	21,35
699,084	21,84
699,527	22,39
699,971	22,59
700,414	23,41
700,857	23,81
701,3	24,35
701,743	24,66
702,186	25,03
702,629	25,61
703,072	25,99
703,515	26,65
703,957	26,75
704,399	27,44
704,842	27,7
705,284	28,21
705,726	28,68
706,168	29,09
706,61	29,55
707,052	29,58
707,494	30,28
707,935	30,55
708,377	31,23
708,818	31,19
709,26	31,76
709,701	32,15
710,142	32,57
710,583	32,55
711,024	33,04
711,465	33,08
711,905	33,36
712,346	33,87
712,787	34,23
713,227	34,48
713,667	35,06
714,108	35,18
714,548	35,63
714,988	35,83
715,428	36,07
715,868	36,29
716,307	36,44
716,747	36,75
717,186	37,25
717,626	37,43
718,065	37,69
718,504	37,6
718,944	38,43
719,383	38,42
719,822	38,25
720,261	38,71
720,699	38,78
721,138	38,97
721,576	39,43
722,015	39,4
722,453	39,52
722,892	39,95
723,33	40,1
723,768	40,36
724,206	40,28
724,644	40,84
725,081	40,91
725,519	40,67
725,957	41,28
726,394	41,07
726,832	41,5
727,269	42,1
727,706	41,53
728,143	41,88
728,58	41,56
729,017	42,04
729,454	42,18
729,89	42,24
730,327	42,35
730,764	42,16
731,2	42,45
731,636	42,48
732,072	42,5
732,509	42,91
732,945	42,61
733,38	42,46
733,816	42,86
734,252	42,88
734,688	42,74
735,123	43,23
735,559	43,33
735,994	43,48
736,429	43,37
736,864	43,16
737,299	43,19
737,734	43,71
738,169	43,74
738,604	43,26
739,038	43,22
739,473	43,46
739,907	43,37
740,342	43,18
740,776	43,73
741,21	43,5
741,644	43,2
742,078	43,45
742,512	43,39
742,946	43,39
743,379	43,71
743,813	43,36
744,246	43,32
744,68	43,66
745,113	43,35
745,546	43,92
745,979	43,48
746,412	43,85
746,845	43,3
747,278	43,6
747,711	43,45
748,143	43,41
748,576	43,53
749,008	43,24
749,441	43,22
749,873	43,32
750,305	43,46
750,737	43,34
751,169	43,09
751,601	43,37
752,032	43,29
752,464	43,06
752,896	42,66
753,327	42,78
753,758	42,78
754,19	43,26
754,621	43,17
755,052	42,77
755,483	42,88
755,914	42,75
756,344	43,1
756,775	42,99
757,206	42,62
757,636	42,65
758,066	42,43
758,497	42,8
758,927	42,82
759,357	42,68
759,787	42,43
760,217	42,91
760,647	42,22
761,076	42,54
761,506	42,49
761,935	42,49
762,365	42,4
762,794	42,51
763,223	42,54
763,653	42,31
764,082	42,27
764,51	42,19
764,939	42,33
765,368	42,34
765,797	42,02
766,225	42,03
766,654	42,03
767,082	42,03
767,51	41,86
767,938	41,49
768,367	42,09
768,795	42,15
769,222	41,75
769,65	41,91
770,078	42,01
770,505	41,75
770,933	41,62
771,36	41,72
771,788	41,99
772,215	41,98
772,642	42,06
773,069	41,64
773,496	41,67
773,923	41,52
774,349	41,85
774,776	41,68
775,203	41,68
775,629	41,71
776,055	41,75
776,482	41,46
776,908	41,53
777,334	41,57
777,76	41,52
778,186	41,56
778,611	41,55
779,037	41,37
779,463	41,55
779,888	41,25
780,314	41,45
780,739	41,55
781,164	41,31
781,589	41,56
782,014	41,25
782,439	41,61
782,864	41,42
783,289	41,54
783,713	41,66
784,138	41,28
784,562	41,24
784,987	41,27
785,411	41,27
785,835	41,32
786,259	40,94
786,683	41,39
787,107	40,91
787,531	41,24
787,954	41,18
788,378	41,27
788,802	41,24
789,225	41,04
789,648	41,11
790,071	41,18
790,495	41,09
790,918	41,02
791,34	41,2
791,763	41,33
792,186	40,9
792,609	41,02
793,031	41,03
793,454	40,8
793,876	40,78
794,298	41,09
794,721	40,8
795,143	40,84
795,565	41,11
795,986	41,05
796,408	40,89
796,83	41
797,252	40,88
797,673	40,68
798,094	40,92
798,516	41,21
798,937	41,11
799,358	41,04
799,779	40,91
800,2	40,94
800,621	40,59
801,042	41,07
801,462	40,78
801,883	41,03
802,303	40,66
802,724	40,95
803,144	40,97
803,564	40,8
803,984	40,89
804,404	40,64
804,824	40,79
805,244	40,88
805,664	40,87
806,084	40,62
806,503	40,9
806,923	41,11
807,342	40,95
807,761	40,56
808,18	40,76
808,599	40,82
809,018	40,64
809,437	40,71
809,856	40,79
810,275	40,68
810,693	40,85
811,112	40,9
811,53	40,88
811,949	40,82
812,367	41,11
812,785	40,79
813,203	40,84
813,621	40,7
814,039	40,41
814,457	40,78
814,874	40,87
815,292	40,92
815,709	41,06
816,127	40,78
816,544	40,78
816,961	40,33
817,378	40,86
817,795	40,64
818,212	40,74
818,629	40,82
819,046	40,91
819,462	40,76
819,879	40,64
820,295	40,97
820,712	40,35
821,128	40,77
821,544	40,32
821,96	40,68
822,376	40,71
822,792	40,41
823,208	40,37
823,624	40,63
824,039	40,54
824,455	40,8
824,87	40,73
825,286	40,65
825,701	40,85
826,116	40,55
826,531	40,88
826,946	40,37
827,361	40,4
827,776	40,62
828,19	40,45
828,605	40,7
829,02	40,64
829,434	40,51
829,848	40,53
830,263	40,33
830,677	40,63
831,091	40,6
831,505	40,57
831,919	40,6
832,332	40,68
832,746	40,13
833,16	40,34
833,573	40,32
833,987	40,61
834,4	40,38
834,813	41,09
835,226	40,5
835,639	40,57
836,052	40,37
836,465	40,3
836,878	40,27
837,29	40,67
837,703	40,55
838,116	40,2
838,528	40,49
838,94	40,01
839,352	40
839,765	40,47
840,177	40,36
840,589	40,03
841	40,3
841,412	40,27
841,824	40,32
842,235	40,36
842,647	40,11
843,058	40,23
843,47	40,48
843,881	40,52
844,292	40,6
844,703	40,44
845,114	40,11
845,525	40,34
845,935	40,5
846,346	40,49
846,757	40,54
847,167	40,03
847,577	40,36
847,988	40,16
848,398	40,03
848,808	40,27
849,218	40,31
849,628	40,22
850,038	39,97
850,448	39,82
850,857	40,26
851,267	40,29
851,676	40,59
852,086	40,38
852,495	40,37
852,904	40,89
853,313	40
853,722	39,77
854,131	39,92
854,54	40,27
854,949	39,47
855,357	39,99
855,766	40,2
856,174	39,84
856,583	40,1
856,991	39,86
857,399	40,07
857,807	40,03
858,215	40,02
858,623	40,12
859,031	40,06
859,439	40,1
859,846	40,04
860,254	40,32
860,661	39,93
861,069	39,77
861,476	40,07
861,883	39,89
862,29	40,08
862,697	39,99
863,104	40,15
863,511	39,94
863,918	39,79
864,325	40,08
864,731	39,67
865,138	40,1
865,544	40,14
865,95	39,9
866,357	40,34
866,763	39,77
867,169	39,77
867,575	40,26
867,98	39,98
868,386	39,79
868,792	40,02
869,197	40,18
869,603	40,29
870,008	40,16
870,414	39,67
870,819	39,29
871,224	39,78
871,629	39,89
872,034	40,27
872,439	39,63
872,844	39,98
873,248	40,06
873,653	40,23
874,057	40,13
874,462	40,15
874,866	39,92
875,27	40,07
875,674	40,3
876,078	39,51
876,482	39,68
876,886	39,63
877,29	40,15
877,694	39,51
878,097	40,01
878,501	39,61
878,904	39,72
879,308	39,98
879,711	39,43
880,114	39,76
880,517	40,02
880,92	39,81
881,323	40,07
881,726	39,8
882,128	40,29
882,531	40,11
882,934	40,23
883,336	39,7
883,738	39,95
884,141	40,06
884,543	40,05
884,945	39,93
885,347	39,69
885,749	39,8
886,151	40,02
886,552	40,07
886,954	39,84
887,355	40,09
887,757	40,22
888,158	39,67
888,56	40,38
888,961	39,67
889,362	39,65
889,763	39,9
890,164	39,85
890,565	39,81
890,965	39,98
891,366	40,19
891,767	39,88
892,167	39,82
892,567	39,65
892,968	39,75
893,368	39,37
893,768	39,58
894,168	39,61
894,568	39,46
894,968	39,61
895,368	39,77
895,767	39,66
896,167	39,7
896,566	39,85
896,966	39,95
897,365	39,45
897,764	39,69
898,164	39,56
898,563	40,24
898,962	39,72
899,361	39,59
899,759	39,56
900,158	39,71
900,557	39,6
900,955	39,21
901,354	39,59
901,752	38,89
902,15	39,84
902,548	39,81
902,947	39,86
903,345	40,17
903,742	39,47
904,14	40,02
904,538	39,99
904,936	39,7
905,333	39,58
905,731	39,86
906,128	39,81
906,525	39,96
906,923	40,06
907,32	39,8
907,717	40,07
908,114	39,73
908,511	39,62
908,907	39,84
909,304	39,91
909,701	39,58
910,097	39,49
910,494	39,81
910,89	39,38
911,286	40,01
911,682	39,76
912,078	40,04
912,474	39,9
912,87	39,65
913,266	39,93
913,662	39,52
914,058	39,7
914,453	40,05
914,849	39,57
915,244	39,49
915,639	40,2
916,034	39,57
916,43	39,8
916,825	39,86
917,22	39,79
917,614	39,74
918,009	39,77
918,404	39,82
918,798	39,93
919,193	39,83
919,587	39,63
919,982	40,1
920,376	39,69
920,77	39,67
921,164	40,13
921,558	39,91
921,952	39,59
922,346	39,59
922,74	39,35
923,133	39,74
923,527	39,71
923,92	39,98
924,314	39,55
924,707	39,53
925,1	39,46
925,493	39,19
925,886	39,95
926,279	39,57
926,672	39,75
927,065	39,42
927,457	39,4
927,85	40,19
928,243	39,69
928,635	39,59
929,027	39,38
929,42	39,38
929,812	39,14
930,204	39,91
930,596	39,24
930,988	39,32
931,379	39,23
931,771	39,62
932,163	39,56
932,554	39,73
932,946	39,56
933,337	40,31
933,729	39,5
934,12	39,43
934,511	39,94
934,902	39,41
935,293	39,5
935,684	39,25
936,075	39,32
936,465	39,96
936,856	39,5
937,246	40,21
937,637	39,53
938,027	39,78
938,417	40,06
938,808	39,46
939,198	39,52
939,588	40,09
939,978	39,04
940,368	39,05
940,757	39,62
941,147	39,38
941,537	40,52
941,926	39,72
942,315	39,79
942,705	39,45
943,094	39,76
943,483	39,52
943,872	39,71
944,261	38,93
944,65	40,12
945,039	39,28
945,428	39,25
945,816	38,89
946,205	40,11
946,593	39,28
946,982	39,52
947,37	39,94
947,758	40,45
948,146	39,45
948,534	39,2
948,922	40,16
949,31	39
949,698	39,81
950,086	39,37
950,473	38,86
950,861	40,24
951,248	39,58
951,636	39,37
952,023	38,91
952,41	39,49
952,797	39,04
953,184	39
953,571	38,99
953,958	39,43
954,345	38,65
954,731	39,61
955,118	38,99
955,505	39,9
955,891	39,11
956,277	39,01
956,664	39,06
957,05	38,94
957,436	38,94
957,822	38,93
958,208	38,64
958,594	39,06
958,979	38,7
959,365	38,98
959,751	39,35
960,136	38,84
960,522	38,41
960,907	38,86
961,292	38,92
961,677	39,43
962,062	39,02
962,447	38,64
962,832	38,69
963,217	38,64
963,602	38,73
963,986	39,05
964,371	38,83
964,756	38,24
965,14	38,01
965,524	38,67
965,908	38,99
966,293	38,11
966,677	38,82
967,061	39,04
967,445	38,4
967,828	38,67
968,212	38,31
968,596	39,17
968,979	39,14
969,363	39,01
969,746	38,56
970,129	39,22
970,513	39,13
970,896	38,52
971,279	39,08
971,662	39,47
972,045	38,74
972,428	38,15
972,81	38,4
973,193	39,17
973,575	38,45
973,958	38,76
974,34	38,47
974,723	38,68
975,105	39,11
975,487	38,74
975,869	38,35
976,251	38,62
976,633	38,97
977,015	38,94
977,396	38,19
977,778	38,42
978,16	39,12
978,541	38,69
978,922	38,86
979,304	38,24
979,685	38,31
980,066	39,29
980,447	38,29
980,828	38,56
981,209	38,78
981,59	38,09
981,97	38,69
982,351	39,14
982,732	39,1
983,112	38,75
983,493	38,26
983,873	38,78
984,253	38,86
984,633	38,96
985,013	39,11
985,393	38,86
985,773	39,35
986,153	38,98
986,533	38,46
986,912	39,4
987,292	39,02
987,671	39,06
988,051	39,35
988,43	39,11
988,809	38,99
989,188	39,2
989,567	38,36
989,946	39,35
990,325	38,19
990,704	38,87
991,083	38,5
991,461	39,14
991,84	39,1
992,218	38,45
992,597	38,31
992,975	38,59
993,353	39,77
993,732	39,28
994,11	38,83
994,488	38,67
994,866	38,47
995,243	38,95
995,621	38,75
995,999	38,89
996,376	39,25
996,754	38,88
997,131	38,88
997,509	39,25
997,886	39,13
998,263	38,74
998,64	39,15
999,017	39,15
999,394	39,19
999,771	38,34
1000,148	39,2
1000,524	39,44
1000,901	38,78
1001,277	39,66
1001,654	39,67
1002,03	39,01
1002,406	38,85
1002,783	39,24
1003,159	40,01
1003,535	39,2
1003,911	39,17
1004,286	38,82
1004,662	38,43
1005,038	38,78
1005,414	39,58
1005,789	39,32
1006,164	39,64
1006,54	39,08
1006,915	38,99
1007,29	39,43
1007,665	39,83
1008,04	38,67
1008,415	39,12
1008,79	39,54
1009,165	39,41
1009,54	39,55
1009,914	38,37
1010,289	38,28
1010,663	39,35
1011,038	39,89
1011,412	38,81
1011,786	39,63
1012,16	39,11
1012,535	39,1
1012,909	39,5
1013,282	39,52
1013,656	39,51
1014,03	39,2
1014,404	39,81
1014,777	39,71
1015,151	39,73
1015,524	38,7
1015,897	39,16
1016,271	39,6
1016,644	38,79
1017,017	39,67
1017,39	39,45
1017,763	39,23
1018,136	40,37
1018,508	38,75
1018,881	39,42
1019,254	40,24
1019,626	39,58
1019,999	39,11
1020,371	39,79
1020,743	39,97
1021,116	39,07
1021,488	39,26
1021,86	40,4
1022,232	39,35
1022,604	39,22
1022,975	39,61
1023,347	38,89
1023,719	39,62
1024,09	40,03
1024,462	40,26
1024,833	39,62
1025,204	39,65
1025,576	39,13
1025,947	39,61
1026,318	39,62
1026,689	39,4
1027,06	40,61
1027,431	39,74
1027,801	39,94
1028,172	40,45
1028,543	39,67
1028,913	40,33
1029,284	40,21
1029,654	40,12
1030,024	38,77
1030,394	40,43
1030,764	40,18
1031,135	39,97
1031,504	40,3
1031,874	39,71
1032,244	39,99
1032,614	40,31
1032,983	39,63
1033,353	39,64
1033,722	40,05
1034,092	39,6
1034,461	39,69
1034,83	40,18
1035,2	40,63
1035,569	40,44
1035,938	39,91
1036,307	40,22
1036,675	39,89
1037,044	40,41
1037,413	40,55
1037,781	39,36
1038,15	40,15
1038,518	40,11
1038,887	39,99
1039,255	40,77
1039,623	40,26
1039,991	40,16
1040,359	39,69
1040,727	39,32
1041,095	39,22
1041,463	40,41
1041,831	40,91
1042,198	39,07
1042,566	39,9
1042,933	40,23
1043,301	39,94
1043,668	40,54
1044,035	39,6
1044,402	40,81
1044,77	40,16
1045,137	40,91
1045,503	41,2
1045,87	39,46
1046,237	40,68
1046,604	40,24
1046,97	40,99
1047,337	39,64
1047,703	40,17
1048,07	41,6
1048,436	40,3
1048,802	40,85
1049,168	40,9
1049,534	39,77
1049,9	40,89
1050,266	41,08
1050,632	40,83
1050,998	40,56
1051,364	41,14
1051,729	41,2
1052,095	41,39
1052,46	40,15
1052,825	41,5
1053,191	40,71
1053,556	40,27
1053,921	40,75
1054,286	41,26
1054,651	40,38
1055,016	40,69
1055,381	40,33
1055,745	41,81
1056,11	40,34
1056,475	40,77
1056,839	41,4
1057,203	40,21
1057,568	41,8
1057,932	40,64
1058,296	41,09
1058,66	41,37
1059,024	41,24
1059,388	40,72
1059,752	42,4
1060,116	41,39
1060,48	41,29
1060,843	40,2
1061,207	40,28
1061,57	42,94
1061,934	41,13
1062,297	39,55
1062,66	41,33
1063,023	41,72
1063,386	41,79
1063,749	41,44
1064,112	42,14
1064,475	41,54
1064,838	41,53
1065,201	41,39
1065,563	42,28
1065,926	41,18
1066,288	40,38
1066,651	42,39
1067,013	42,48
1067,375	41,93
1067,737	42,89
1068,099	41,55
1068,461	42,52
1068,823	41,51
1069,185	41,43
1069,547	41,76
1069,909	42,47
1070,27	41,34
1070,632	41,92
1070,993	42,6
1071,355	41,91
1071,716	42,31
1072,077	42,03
1072,438	42,33
1072,799	41,74
1073,16	41,43
1073,521	42,86
1073,882	42,29
1074,243	41,11
1074,603	41,42
1074,964	41,59
1075,325	41,48
1075,685	43,19
1076,045	40,1
1076,406	42,43
1076,766	40,8
1077,126	42,02
1077,486	41,31
1077,846	42,29
1078,206	42,98
1078,566	43,35
1078,925	40,96
1079,285	41,9
1079,645	42,48
1080,004	41,58
1080,364	42,61
1080,723	41,85
1081,082	41,86
1081,442	43,09
1081,801	41,35
1082,16	42,88
1082,519	43,05
1082,878	43,43
1083,237	41,18
1083,595	43,18
1083,954	42,95
1084,313	41,82
1084,671	42,12
1085,03	46,64
1085,388	43,27
1085,746	43,52
1086,104	41,31
1086,463	44,34
1086,821	43,51
1087,179	42,65
1087,537	44,79
1087,894	43,17
1088,252	43,6
1088,61	42,9
1088,967	45,28
1089,325	42,78
1089,682	42,02
1090,04	44,73
1090,397	44,64
1090,754	43,97
1091,111	43,45
1091,469	46,12
1091,826	42,82
1092,182	41,77
1092,539	41,32
1092,896	44,77
1093,253	42,93
1093,609	41,52
1093,966	44,75
1094,322	41,39
1094,679	44,96
1095,035	44,66
1095,391	44,95
1095,748	45
1096,104	46,48
1096,46	44,15
1096,816	45,8
1097,171	44,25
1097,527	42,07
1097,883	44,41
1098,239	44,09
1098,594	43,42
1098,95	44,74
1099,305	44,34
1099,66	45,01
1100,016	44,93
1100,371	44,92
1100,726	44,36
1101,081	44,82
1101,436	44,89
1101,791	45,37
1102,146	47,59
1102,5	45,51
1102,855	46,86
1103,21	47,43
1103,564	47,25
1103,918	44,1
1104,273	44,49
1104,627	47,26
1104,981	45,44
1105,335	45,8
1105,69	47,39
1106,043	47
1106,397	44,93
1106,751	47,35
1107,105	48,51
1107,459	47,21
1107,812	47,91
1108,166	47,11
1108,519	47,48
1108,873	46,68
1109,226	49,3
1109,579	48,38
1109,932	49,37
1110,285	47,3
1110,638	47,49
1110,991	47,72
1111,344	48,98
1111,697	43,1
1112,05	48,86
1112,402	47,95
1112,755	45,71
1113,107	46,48
1113,46	52,85
1113,812	51,36
1114,164	52,63
1114,517	48,81
1114,869	130
1115,221	134,43
1115,573	138,46
1115,924	138,03
