Data from G4__Relative__2__00089.txt Node

Date: Thu Feb 01 16:25:21 CET 2024
User: diatiterra
Spectrometer: HDX00911
Trigger mode: 0
Integration Time (sec): 6,000000E-3
Scans to average: 2
Nonlinearity correction enabled: false
Boxcar width: 0
Storing dark spectrum: false
XAxis mode: Wavelengths
Number of Pixels in Spectrum: 2068
>>>>>Begin Spectral Data<<<<<
194,468	190,77
195,025	118,06
195,581	125,76
196,138	125
196,694	135,16
197,251	100
197,807	78,49
198,363	79,29
198,919	71,2
199,474	70,7
200,03	80,68
200,586	86,08
201,141	70,62
201,696	73,99
202,251	72,38
202,806	75,86
203,361	77,6
203,916	72,43
204,471	79,35
205,025	77,84
205,58	74,57
206,134	71,81
206,688	71,2
207,242	77,91
207,796	69,19
208,35	84,3
208,904	85,31
209,457	88,82
210,011	83,44
210,564	73,12
211,117	86,93
211,67	82,58
212,223	75,77
212,776	72,19
213,329	75,94
213,881	68,91
214,434	77,5
214,986	88,55
215,538	73,37
216,09	82,81
216,642	80,72
217,194	77,06
217,746	82,86
218,297	78,33
218,849	87,79
219,4	72,22
219,951	89,71
220,502	78,7
221,053	82,74
221,604	84,02
222,155	76,47
222,705	80,12
223,256	78,65
223,806	77,14
224,356	73,71
224,906	76,36
225,456	70,59
226,006	77,05
226,556	75,68
227,106	83,54
227,655	79,58
228,204	77,97
228,754	82,76
229,303	75,29
229,852	72,78
230,401	83,95
230,949	76,84
231,498	73,4
232,047	73,89
232,595	90,8
233,143	77,37
233,691	77,47
234,239	75,96
234,787	76,16
235,335	83,72
235,883	76,32
236,43	78,06
236,978	72,87
237,525	66,33
238,072	73,89
238,619	89,63
239,166	74,02
239,713	70,39
240,26	82,46
240,806	92,64
241,353	72,67
241,899	76,92
242,445	77,51
242,991	70,81
243,537	84,31
244,083	81,87
244,629	72,5
245,174	78,16
245,72	73,74
246,265	71,2
246,81	72,73
247,355	74,18
247,9	71,18
248,445	82,8
248,99	70,56
249,534	71,91
250,079	78,92
250,623	73,37
251,168	81,61
251,712	72,94
252,256	85,09
252,8	67,8
253,343	84,07
253,887	71,58
254,43	72,73
254,974	78,21
255,517	76,84
256,06	81,25
256,603	80,9
257,146	74,59
257,689	67,2
258,232	69,31
258,774	78,57
259,317	69,23
259,859	72,25
260,401	70,79
260,943	87,9
261,485	75,14
262,027	73,02
262,569	82,12
263,11	78,53
263,652	76,37
264,193	75,57
264,734	69,01
265,275	70,31
265,816	71,89
266,357	77,25
266,898	66,67
267,438	86,71
267,979	66,48
268,519	73,21
269,059	86,75
269,6	70,49
270,14	66,33
270,68	74,66
271,219	69,54
271,759	90,38
272,298	78,92
272,838	76,02
273,377	74,86
273,916	87,92
274,455	85,64
274,994	72,22
275,533	76,65
276,072	92,81
276,61	89,35
277,149	88,82
277,687	78,92
278,225	81,18
278,763	80,35
279,301	77,13
279,839	83,51
280,377	85,71
280,914	77,32
281,452	88,27
281,989	83,53
282,526	85,44
283,064	94,38
283,601	73,03
284,137	84,05
284,674	94,94
285,211	81,18
285,747	83,42
286,284	85,29
286,82	82,29
287,356	75,77
287,892	83,43
288,428	82,76
288,964	80,11
289,5	78,61
290,035	82,95
290,571	88,89
291,106	77,53
291,641	87,21
292,176	72,04
292,711	75,58
293,246	73,91
293,781	72,38
294,315	74,49
294,85	74,84
295,384	91,91
295,918	73,94
296,453	74,05
296,987	74,32
297,52	77,72
298,054	82,18
298,588	87,8
299,121	68,72
299,655	85,29
300,188	86
300,721	80,12
301,254	74,6
301,787	74,19
302,32	70,47
302,853	77,65
303,385	76,09
303,918	90,86
304,45	75,51
304,982	79,66
305,514	77,13
306,046	78,8
306,578	77,54
307,11	83,43
307,641	81,32
308,173	82,58
308,704	82,95
309,236	75,13
309,767	77,89
310,298	90,57
310,829	75,5
311,359	72,46
311,89	81,29
312,421	69,19
312,951	85,71
313,481	75,88
314,012	77,6
314,542	75,53
315,072	75,14
315,601	75,97
316,131	77,66
316,661	82,39
317,19	75,14
317,72	81,33
318,249	80
318,778	81,63
319,307	77,08
319,836	84,18
320,365	83,6
320,893	80,83
321,422	82,74
321,95	73,96
322,479	86,67
323,007	92,7
323,535	78,61
324,063	72,88
324,591	78,31
325,118	80,65
325,646	78,19
326,173	77,6
326,701	65,64
327,228	69,11
327,755	74,11
328,282	79,33
328,809	78,82
329,336	71,64
329,862	83,43
330,389	70,1
330,915	74,09
331,441	83,04
331,968	80,34
332,494	73,47
333,02	78,21
333,545	63,49
334,071	66,67
334,597	79,78
335,122	69,15
335,648	69,71
336,173	78,38
336,698	71,28
337,223	75,94
337,748	56,72
338,272	67,55
338,797	76,5
339,322	74,05
339,846	69,35
340,37	65,57
340,894	66,67
341,419	74,71
341,942	65,61
342,466	69,43
342,99	76,44
343,514	69,12
344,037	68,62
344,56	66,03
345,084	67,66
345,607	60,68
346,13	67,61
346,653	67,29
347,175	66,51
347,698	68,84
348,221	67,61
348,743	60,92
349,265	69,95
349,787	63,9
350,309	58,7
350,831	65,69
351,353	69,67
351,875	62,75
352,397	56,47
352,918	62,5
353,439	61,18
353,961	54,72
354,482	57,02
355,003	60,49
355,524	60,49
356,044	64,73
356,565	52,85
357,086	56,18
357,606	51,91
358,126	55,56
358,646	55,39
359,167	61,74
359,687	57,25
360,206	57,41
360,726	54,47
361,246	55,47
361,765	56,52
362,285	53,53
362,804	49,28
363,323	52,13
363,842	52,82
364,361	54,74
364,88	49,84
365,398	61,05
365,917	50,93
366,435	59
366,954	47,88
367,472	53,8
367,99	46,75
368,508	52
369,026	59,29
369,544	51,26
370,061	48,07
370,579	53,4
371,096	46,83
371,613	53,28
372,131	48,41
372,648	51,57
373,165	44,11
373,681	54,52
374,198	49
374,715	49,29
375,231	47,59
375,747	44,71
376,264	47,26
376,78	44,67
377,296	42,07
377,812	46,08
378,327	48,12
378,843	46,29
379,359	44,81
379,874	46,15
380,389	40,18
380,905	38,71
381,42	42,89
381,935	43,28
382,449	42,36
382,964	38,46
383,479	39,92
383,993	43,89
384,508	37,22
385,022	39,85
385,536	39,65
386,05	41,81
386,564	38,9
387,078	39,61
387,592	36,13
388,105	37,36
388,619	35,36
389,132	36,72
389,645	36,32
390,158	35,82
390,671	36,13
391,184	30,15
391,697	33,01
392,21	32,42
392,722	33,73
393,235	32,63
393,747	30,72
394,259	33,38
394,771	34,92
395,283	34,56
395,795	31,06
396,307	29,27
396,818	31,49
397,33	31,02
397,841	27,74
398,353	29,45
398,864	28,28
399,375	27,17
399,886	27,42
400,397	24,69
400,907	25,62
401,418	23,19
401,928	26,4
402,439	24,22
402,949	24,63
403,459	22,71
403,969	22,23
404,479	21,72
404,989	21,2
405,498	19,59
406,008	21,08
406,517	20,17
407,027	21,4
407,536	18,83
408,045	18,21
408,554	18,69
409,063	17,67
409,572	15,38
410,08	16,43
410,589	15,63
411,097	15,48
411,606	14,94
412,114	14,04
412,622	13,71
413,13	13,9
413,638	13
414,145	11,52
414,653	12,46
415,16	11,99
415,668	11,2
416,175	11,31
416,682	10,91
417,189	10,62
417,696	11,32
418,203	9,81
418,71	9,96
419,216	10,21
419,723	9,99
420,229	9,57
420,735	9,66
421,242	9,46
421,748	8,97
422,254	9,6
422,759	8,93
423,265	9,33
423,771	8,79
424,276	8,03
424,781	8,01
425,287	8,25
425,792	8,65
426,297	8,86
426,802	8,22
427,306	8,03
427,811	7,87
428,316	8,45
428,82	8,04
429,324	7,92
429,829	7,88
430,333	8,31
430,837	7,49
431,34	8,02
431,844	7,4
432,348	8,03
432,851	7,2
433,355	7,29
433,858	7,97
434,361	7,81
434,864	7,05
435,367	7,16
435,87	7,21
436,373	7,49
436,876	7,45
437,378	6,98
437,88	6,89
438,383	6,62
438,885	7,03
439,387	7,44
439,889	7,56
440,391	6,9
440,892	7,48
441,394	7,24
441,896	7,02
442,397	7,22
442,898	6,69
443,399	6,76
443,9	6,53
444,401	7,33
444,902	7,29
445,403	7,13
445,903	7,19
446,404	7,22
446,904	7,68
447,405	6,89
447,905	7,31
448,405	6,78
448,905	6,57
449,404	6,69
449,904	7,62
450,404	7,56
450,903	7,32
451,403	6,94
451,902	7,84
452,401	6,78
452,9	7,48
453,399	7,39
453,898	7,26
454,396	7,53
454,895	7,59
455,393	7,05
455,892	7,96
456,39	7,73
456,888	7,25
457,386	7,47
457,884	7,73
458,382	7,46
458,879	7,3
459,377	8,03
459,874	7,73
460,372	7,6
460,869	7,61
461,366	7,77
461,863	8,1
462,36	7,82
462,857	7,84
463,353	7,3
463,85	7,77
464,346	7,35
464,843	8,05
465,339	7,41
465,835	7,47
466,331	7,51
466,827	7,95
467,323	7,46
467,818	7,38
468,314	7,56
468,809	7,47
469,305	7,68
469,8	7,37
470,295	7,43
470,79	7,43
471,285	7,44
471,78	7,65
472,274	7,64
472,769	7,39
473,263	7,67
473,758	7,21
474,252	7,69
474,746	7,42
475,24	7,5
475,734	7,42
476,228	7,64
476,721	7,37
477,215	7,77
477,708	7,81
478,202	7,3
478,695	7,57
479,188	7,96
479,681	7,77
480,174	7,38
480,667	7,54
481,159	7,51
481,652	7,75
482,144	7,44
482,637	7,79
483,129	7,57
483,621	7,87
484,113	7,56
484,605	8,01
485,097	8,06
485,588	8,18
486,08	8,12
486,571	7,76
487,063	8,03
487,554	7,86
488,045	7,9
488,536	7,62
489,027	8,28
489,518	7,96
490,008	8,19
490,499	8,3
490,989	8,44
491,48	8,3
491,97	8,09
492,46	8,61
492,95	8,64
493,44	8,9
493,93	8,83
494,419	8,77
494,909	8,96
495,398	9,11
495,888	9,35
496,377	9,29
496,866	9,54
497,355	9,94
497,844	9,37
498,333	9,62
498,821	9,42
499,31	9,86
499,798	10,41
500,287	10,55
500,775	10,47
501,263	10,68
501,751	10,36
502,239	10,91
502,727	11,05
503,215	10,97
503,702	11,2
504,19	11,28
504,677	12,02
505,164	11,84
505,651	11,97
506,139	12,18
506,625	12,49
507,112	12,86
507,599	13,16
508,086	13,36
508,572	13,46
509,058	13,78
509,545	13,92
510,031	14,43
510,517	14,21
511,003	14,76
511,489	14,81
511,974	15,2
512,46	15,56
512,946	15,71
513,431	16,19
513,916	16,8
514,401	16,63
514,887	17,06
515,371	17,16
515,856	17,42
516,341	17,92
516,826	18,27
517,31	18,67
517,795	19,04
518,279	19,78
518,763	19,5
519,247	19,66
519,731	20,31
520,215	20,65
520,699	20,75
521,182	21,48
521,666	21,7
522,149	22,19
522,633	22,28
523,116	22,13
523,599	22,69
524,082	23,4
524,565	23,62
525,048	23,83
525,53	24,03
526,013	24,61
526,495	24,57
526,978	24,55
527,46	24,9
527,942	25,2
528,424	26
528,906	25,58
529,388	26,26
529,87	26,24
530,351	26,4
530,833	26,73
531,314	26,81
531,795	26,87
532,277	26,79
532,758	27,05
533,238	27,18
533,719	27,51
534,2	27,87
534,681	27,6
535,161	27,64
535,642	27,92
536,122	27,91
536,602	28,23
537,082	28,07
537,562	27,96
538,042	28,01
538,522	28,4
539,001	28,43
539,481	27,92
539,96	28,83
540,44	28,78
540,919	28,04
541,398	29,02
541,877	28,61
542,356	28,74
542,835	28,67
543,313	28,47
543,792	28,45
544,27	29,07
544,749	28,82
545,227	28,81
545,705	28,83
546,183	28,61
546,661	28,83
547,139	28,84
547,616	29,03
548,094	29,16
548,571	29,35
549,049	29,36
549,526	29,51
550,003	28,71
550,48	29,51
550,957	29,26
551,434	29,04
551,911	29,68
552,387	29,37
552,864	29
553,34	29,36
553,817	29,34
554,293	29,57
554,769	29,46
555,245	29,04
555,721	29,37
556,197	29,56
556,672	29,92
557,148	29,28
557,623	29,55
558,099	29,24
558,574	29,5
559,049	29,72
559,524	29,07
559,999	29,26
560,474	29,4
560,948	28,95
561,423	29,05
561,897	28,76
562,372	29,5
562,846	28,9
563,32	28,71
563,794	28,93
564,268	28,78
564,742	28,16
565,216	28,07
565,69	28,27
566,163	28,39
566,636	28,23
567,11	27,6
567,583	27,83
568,056	27,48
568,529	27,54
569,002	27,51
569,475	27,72
569,947	26,94
570,42	27,13
570,892	26,84
571,365	26,27
571,837	26,7
572,309	25,63
572,781	26,5
573,253	25,95
573,725	25,38
574,197	25,71
574,668	25,3
575,14	25,4
575,611	25,25
576,082	25,18
576,554	24,87
577,025	24,58
577,496	24,42
577,967	24,31
578,437	24,16
578,908	24,26
579,379	24,19
579,849	23,79
580,319	23,92
580,79	23,59
581,26	23,67
581,73	23,52
582,2	23,17
582,669	23,24
583,139	23,19
583,609	22,89
584,078	22,71
584,548	22,68
585,017	22,49
585,486	22,17
585,955	22,3
586,424	22,27
586,893	22,28
587,362	21,85
587,83	21,69
588,299	21,8
588,767	22,16
589,236	21,75
589,704	21,63
590,172	21,48
590,64	21,31
591,108	21,12
591,576	21,33
592,043	21,22
592,511	21,07
592,978	20,77
593,446	21,27
593,913	20,94
594,38	20,99
594,847	20,91
595,314	20,71
595,781	20,83
596,248	20,47
596,715	20,88
597,181	20,96
597,647	20,6
598,114	20,5
598,58	20,56
599,046	20,67
599,512	20,21
599,978	20,32
600,444	20,36
600,91	20,3
601,375	20,42
601,841	20,22
602,306	20,37
602,771	20,22
603,236	20,26
603,702	19,95
604,167	19,99
604,631	19,98
605,096	20
605,561	20,05
606,025	19,84
606,49	19,86
606,954	19,39
607,418	19,48
607,882	19,41
608,347	19,53
608,81	19,6
609,274	19,03
609,738	18,99
610,202	19,19
610,665	18,89
611,128	18,84
611,592	18,87
612,055	18,61
612,518	18,79
612,981	18,62
613,444	18,46
613,907	18,39
614,369	18,29
614,832	17,87
615,294	18,11
615,757	18,01
616,219	17,79
616,681	17,86
617,143	17,66
617,605	17,65
618,067	17,36
618,529	17,66
618,99	17,34
619,452	17,27
619,913	17,47
620,375	17,2
620,836	17,28
621,297	17,23
621,758	16,97
622,219	16,84
622,68	17,19
623,14	17
623,601	16,83
624,061	16,81
624,522	16,67
624,982	16,76
625,442	16,64
625,902	16,48
626,362	16,72
626,822	16,67
627,282	16,73
627,742	16,57
628,201	16,33
628,661	16,64
629,12	16,44
629,579	16,51
630,038	16,31
630,497	16,48
630,956	16,41
631,415	16,27
631,874	16,32
632,332	16,29
632,791	15,99
633,249	16,23
633,708	16,16
634,166	15,86
634,624	15,97
635,082	15,77
635,54	15,55
635,998	15,37
636,455	15,78
636,913	15,36
637,37	15,46
637,828	15,2
638,285	14,91
638,742	14,91
639,199	14,46
639,656	14,63
640,113	14,38
640,57	14,08
641,027	14,15
641,483	13,59
641,94	13,64
642,396	13,58
642,852	13,44
643,309	13,03
643,765	13,03
644,221	12,89
644,676	12,65
645,132	12,61
645,588	12,45
646,043	12,25
646,499	12,02
646,954	12
647,409	11,85
647,864	11,49
648,319	11,43
648,774	11,46
649,229	11,27
649,684	11,22
650,139	11,09
650,593	11,21
651,047	10,91
651,502	11,06
651,956	10,82
652,41	10,93
652,864	10,85
653,318	10,81
653,772	10,73
654,225	10,64
654,679	10,85
655,133	10,66
655,586	10,6
656,039	10,43
656,492	10,61
656,946	10,24
657,399	10,25
657,851	10,22
658,304	10,15
658,757	10,08
659,209	10,01
659,662	9,84
660,114	9,74
660,567	9,43
661,019	9,65
661,471	9,39
661,923	9,34
662,375	9,23
662,826	9,12
663,278	9,09
663,73	8,94
664,181	8,74
664,632	8,79
665,084	8,86
665,535	8,63
665,986	8,38
666,437	8,39
666,888	8,43
667,338	8,34
667,789	8,27
668,24	8,27
668,69	8,33
669,14	8,21
669,591	8,27
670,041	8,15
670,491	8,18
670,941	8,01
671,391	8,29
671,84	8,19
672,29	8,33
672,74	8,25
673,189	8,24
673,638	8,49
674,088	8,36
674,537	8,56
674,986	8,55
675,435	8,51
675,883	8,68
676,332	8,65
676,781	8,73
677,229	8,91
677,678	9,04
678,126	9,05
678,574	9,09
679,022	9,22
679,47	9,57
679,918	9,54
680,366	9,71
680,814	9,89
681,261	9,93
681,709	9,98
682,156	10,12
682,604	10,27
683,051	10,85
683,498	10,63
683,945	10,94
684,392	11,07
684,839	11,43
685,286	11,51
685,732	11,63
686,179	12,02
686,625	12,2
687,071	12,56
687,518	13,02
687,964	13,28
688,41	13,66
688,856	13,94
689,301	14,26
689,747	14,72
690,193	14,98
690,638	15,67
691,084	16,07
691,529	16,38
691,974	16,91
692,419	17,34
692,864	18,07
693,309	18,49
693,754	19
694,199	19,64
694,643	20,06
695,088	20,56
695,532	21,42
695,977	21,82
696,421	22,18
696,865	22,82
697,309	23,19
697,753	23,53
698,197	24,3
698,64	25,07
699,084	25,22
699,527	25,77
699,971	26,03
700,414	26,95
700,857	27,36
701,3	27,76
701,743	27,91
702,186	28,57
702,629	28,52
703,072	29,41
703,515	29,95
703,957	30,06
704,399	30,25
704,842	30,95
705,284	31,11
705,726	31,63
706,168	31,53
706,61	32,27
707,052	32,52
707,494	32,68
707,935	33,17
708,377	33,51
708,818	33,71
709,26	33,93
709,701	34,36
710,142	34,46
710,583	34,84
711,024	35,03
711,465	35,64
711,905	35,52
712,346	35,74
712,787	35,78
713,227	36,46
713,667	36,29
714,108	36,37
714,548	37,19
714,988	37,22
715,428	37,42
715,868	37,49
716,307	37,73
716,747	37,76
717,186	38,26
717,626	38,3
718,065	38,79
718,504	38,52
718,944	39,03
719,383	39,25
719,822	39,16
720,261	38,92
720,699	39,62
721,138	39,5
721,576	39,72
722,015	39,85
722,453	40,04
722,892	40,18
723,33	39,96
723,768	40,18
724,206	40,38
724,644	40,86
725,081	40,46
725,519	40,62
725,957	40,63
726,394	40,91
726,832	41,16
727,269	41,38
727,706	40,82
728,143	41,28
728,58	41,33
729,017	41,6
729,454	41,51
729,89	41,64
730,327	41,69
730,764	41,73
731,2	41,95
731,636	41,87
732,072	41,53
732,509	41,91
732,945	41,95
733,38	41,86
733,816	41,92
734,252	42,03
734,688	42,09
735,123	42,43
735,559	41,93
735,994	42,57
736,429	42,38
736,864	42,28
737,299	41,85
737,734	42,58
738,169	42,46
738,604	42,15
739,038	42,47
739,473	41,84
739,907	42,28
740,342	42,33
740,776	42,38
741,21	42,3
741,644	42,41
742,078	42,14
742,512	41,86
742,946	42,3
743,379	42,35
743,813	41,95
744,246	41,86
744,68	42
745,113	42,21
745,546	42,5
745,979	41,86
746,412	42,2
746,845	42
747,278	42,17
747,711	41,9
748,143	42,01
748,576	41,83
749,008	41,78
749,441	41,84
749,873	41,65
750,305	41,97
750,737	41,9
751,169	41,5
751,601	41,55
752,032	42,04
752,464	41,76
752,896	41,27
753,327	41,69
753,758	41,35
754,19	41,58
754,621	41,43
755,052	41,38
755,483	41,57
755,914	41,1
756,344	41,4
756,775	41,36
757,206	41,18
757,636	41,18
758,066	41,14
758,497	40,98
758,927	40,98
759,357	40,98
759,787	40,91
760,217	40,68
760,647	40,97
761,076	41,07
761,506	40,69
761,935	41,17
762,365	41,03
762,794	40,74
763,223	40,97
763,653	40,41
764,082	40,7
764,51	40,56
764,939	40,24
765,368	40,77
765,797	40,61
766,225	40,68
766,654	40,57
767,082	40,46
767,51	40,42
767,938	40,26
768,367	40,28
768,795	40,49
769,222	40,05
769,65	40,25
770,078	40,03
770,505	40,44
770,933	40,23
771,36	40,38
771,788	40,24
772,215	40,25
772,642	40,17
773,069	39,88
773,496	39,98
773,923	40,33
774,349	40,02
774,776	40,21
775,203	40,11
775,629	40,26
776,055	40,26
776,482	40,13
776,908	40,01
777,334	39,91
777,76	40,15
778,186	39,87
778,611	39,94
779,037	40,03
779,463	39,78
779,888	39,84
780,314	39,98
780,739	39,81
781,164	39,74
781,589	39,56
782,014	39,67
782,439	39,59
782,864	39,97
783,289	39,46
783,713	39,76
784,138	39,55
784,562	39,8
784,987	39,93
785,411	40,15
785,835	39,54
786,259	39,37
786,683	39,41
787,107	39,63
787,531	39,73
787,954	39,4
788,378	39,34
788,802	39,57
789,225	39,54
789,648	39,55
790,071	39,64
790,495	39,64
790,918	39,64
791,34	39,81
791,763	39,46
792,186	39,65
792,609	39,32
793,031	39,59
793,454	39,58
793,876	39,1
794,298	39,57
794,721	39,4
795,143	39,48
795,565	39,45
795,986	39,38
796,408	39,52
796,83	39,43
797,252	39,52
797,673	39,36
798,094	39,45
798,516	39,65
798,937	39,74
799,358	39,12
799,779	39,35
800,2	38,85
800,621	39,1
801,042	38,88
801,462	39,17
801,883	39,42
802,303	39,27
802,724	39,27
803,144	39,07
803,564	39,14
803,984	39,6
804,404	39,46
804,824	39,58
805,244	39,32
805,664	39,05
806,084	39,13
806,503	39,41
806,923	39,19
807,342	39,04
807,761	39,28
808,18	39,48
808,599	39,14
809,018	39,58
809,437	39,64
809,856	39,09
810,275	39,31
810,693	39,26
811,112	38,88
811,53	39,12
811,949	39,34
812,367	39,1
812,785	39,17
813,203	39,2
813,621	39,3
814,039	39,01
814,457	38,95
814,874	39,01
815,292	39,49
815,709	39,41
816,127	39,43
816,544	39,14
816,961	38,99
817,378	39,39
817,795	38,98
818,212	38,97
818,629	39,12
819,046	39,42
819,462	39,04
819,879	39,17
820,295	38,99
820,712	38,76
821,128	39,35
821,544	39,14
821,96	38,96
822,376	39,3
822,792	39,28
823,208	38,69
823,624	39,02
824,039	38,74
824,455	39
824,87	39,29
825,286	39,37
825,701	39,08
826,116	38,67
826,531	39,12
826,946	39,14
827,361	39,01
827,776	38,91
828,19	38,88
828,605	39,09
829,02	39,21
829,434	38,86
829,848	38,83
830,263	38,75
830,677	39,4
831,091	38,77
831,505	39,19
831,919	38,94
832,332	39,07
832,746	38,86
833,16	38,85
833,573	38,65
833,987	38,95
834,4	38,91
834,813	39,01
835,226	38,72
835,639	38,83
836,052	38,8
836,465	39,15
836,878	38,9
837,29	38,97
837,703	38,92
838,116	38,68
838,528	38,73
838,94	38,46
839,352	38,86
839,765	38,62
840,177	38,85
840,589	38,58
841	38,91
841,412	38,71
841,824	38,61
842,235	38,78
842,647	39,15
843,058	38,83
843,47	38,86
843,881	38,82
844,292	39,16
844,703	38,96
845,114	38,7
845,525	38,93
845,935	38,75
846,346	39,01
846,757	39,01
847,167	38,51
847,577	38,54
847,988	38,45
848,398	38,48
848,808	39,04
849,218	38,76
849,628	38,89
850,038	38,42
850,448	38,48
850,857	38,85
851,267	38,46
851,676	38,69
852,086	38,82
852,495	38,78
852,904	39,1
853,313	38,62
853,722	38,26
854,131	38,32
854,54	38,39
854,949	38,11
855,357	38,53
855,766	38,77
856,174	38,52
856,583	38,41
856,991	38,75
857,399	38,42
857,807	38,71
858,215	38,56
858,623	38,66
859,031	38,48
859,439	38,81
859,846	39,05
860,254	38,77
860,661	38,76
861,069	38,78
861,476	38,67
861,883	38,48
862,29	38,54
862,697	38,34
863,104	38,94
863,511	38,87
863,918	38,62
864,325	38,2
864,731	38,89
865,138	37,95
865,544	38,67
865,95	38,16
866,357	38,48
866,763	38,42
867,169	38,3
867,575	38,75
867,98	38,51
868,386	38,66
868,792	38,27
869,197	38,78
869,603	38,42
870,008	38,42
870,414	38,17
870,819	38,59
871,224	37,98
871,629	37,96
872,034	38,48
872,439	38,35
872,844	38,55
873,248	38,49
873,653	38,48
874,057	38,32
874,462	38,68
874,866	38,76
875,27	38,64
875,674	38,63
876,078	37,89
876,482	38,26
876,886	38,02
877,29	38,39
877,694	38,22
878,097	38,26
878,501	38,71
878,904	38,24
879,308	38,52
879,711	38,21
880,114	38,33
880,517	38,11
880,92	38,34
881,323	38,42
881,726	38,39
882,128	38,46
882,531	38,36
882,934	38,32
883,336	38,45
883,738	38,43
884,141	38,89
884,543	38,58
884,945	38,74
885,347	38,24
885,749	38,52
886,151	38,34
886,552	38,29
886,954	38,34
887,355	38,07
887,757	38,43
888,158	37,79
888,56	38,63
888,961	38,5
889,362	38,56
889,763	38,63
890,164	38,33
890,565	38,41
890,965	38,4
891,366	38,43
891,767	38,39
892,167	38,36
892,567	38,28
892,968	38,45
893,368	38,26
893,768	38,32
894,168	38,26
894,568	38,61
894,968	38,28
895,368	38,33
895,767	38,18
896,167	38,3
896,566	38,24
896,966	38,2
897,365	37,99
897,764	38,09
898,164	38,42
898,563	38,64
898,962	38,03
899,361	38,56
899,759	38,34
900,158	38,27
900,557	38,06
900,955	38,15
901,354	38,34
901,752	38,36
902,15	38,63
902,548	37,92
902,947	38,57
903,345	38,2
903,742	38,22
904,14	38,15
904,538	37,79
904,936	37,94
905,333	38,37
905,731	38,38
906,128	38,28
906,525	37,96
906,923	38,13
907,32	38,17
907,717	38,25
908,114	38,08
908,511	37,96
908,907	38,34
909,304	38,48
909,701	38,38
910,097	38,17
910,494	38,61
910,89	37,94
911,286	38,37
911,682	38,45
912,078	38,44
912,474	38,19
912,87	37,75
913,266	38,49
913,662	37,87
914,058	38,09
914,453	38,36
914,849	38,25
915,244	38,21
915,639	38,5
916,034	38,08
916,43	38,26
916,825	38,38
917,22	38,03
917,614	38,38
918,009	38,24
918,404	38,27
918,798	38,28
919,193	38,09
919,587	38,08
919,982	38,46
920,376	38
920,77	38,34
921,164	38,35
921,558	38,08
921,952	37,99
922,346	38,5
922,74	37,55
923,133	38,87
923,527	38,29
923,92	38,22
924,314	37,7
924,707	38,27
925,1	38
925,493	37,84
925,886	38,24
926,279	38,17
926,672	38,18
927,065	38,63
927,457	37,7
927,85	37,87
928,243	38,45
928,635	38,19
929,027	37,99
929,42	38,01
929,812	38,12
930,204	38,37
930,596	38,04
930,988	38,32
931,379	38,13
931,771	38,04
932,163	37,66
932,554	38,19
932,946	37,79
933,337	38,3
933,729	37,99
934,12	37,41
934,511	37,67
934,902	37,77
935,293	38,01
935,684	37,85
936,075	38,21
936,465	37,99
936,856	38,3
937,246	38,06
937,637	38,18
938,027	38,28
938,417	38,46
938,808	38,16
939,198	37,71
939,588	38,54
939,978	37,59
940,368	38,55
940,757	37,94
941,147	38,84
941,537	38,66
941,926	37,95
942,315	38,3
942,705	38,2
943,094	37,98
943,483	39,22
943,872	38,37
944,261	38,39
944,65	37,86
945,039	37,47
945,428	37,79
945,816	37,52
946,205	37,75
946,593	37,97
946,982	38,29
947,37	38,06
947,758	38,56
948,146	38,1
948,534	38,92
948,922	38,16
949,31	38,05
949,698	38,42
950,086	37,55
950,473	37,39
950,861	37,97
951,248	37,58
951,636	37,17
952,023	38,07
952,41	37,42
952,797	37,85
953,184	37,63
953,571	37,71
953,958	38,32
954,345	37,45
954,731	38,52
955,118	36,96
955,505	37,83
955,891	37,64
956,277	37,68
956,664	38
957,05	37,99
957,436	37,11
957,822	37,6
958,208	37,17
958,594	37,68
958,979	37,79
959,365	37,21
959,751	37,66
960,136	37,52
960,522	37,58
960,907	37,45
961,292	37,81
961,677	38,16
962,062	37,43
962,447	37,82
962,832	37,29
963,217	36,87
963,602	37,03
963,986	38,01
964,371	37,51
964,756	37,49
965,14	37,62
965,524	37,06
965,908	37,51
966,293	37,2
966,677	37,91
967,061	37,76
967,445	37,35
967,828	37,58
968,212	37,51
968,596	37,83
968,979	37,36
969,363	37,37
969,746	37,47
970,129	38,02
970,513	37,46
970,896	37,89
971,279	37,59
971,662	37,78
972,045	37,62
972,428	38,05
972,81	37,03
973,193	37,68
973,575	37,77
973,958	37,23
974,34	37,79
974,723	37,28
975,105	37,81
975,487	37,29
975,869	38,16
976,251	37,42
976,633	37,26
977,015	37,83
977,396	37,4
977,778	37,2
978,16	37,32
978,541	37,02
978,922	37,07
979,304	37,06
979,685	37,5
980,066	37,88
980,447	36,57
980,828	37,37
981,209	38,06
981,59	37,03
981,97	37,78
982,351	37,52
982,732	37,34
983,112	37,46
983,493	37,07
983,873	38,02
984,253	38,04
984,633	36,79
985,013	37,36
985,393	38,07
985,773	37,69
986,153	37,65
986,533	37,24
986,912	37,39
987,292	38,78
987,671	37,2
988,051	38,04
988,43	37,23
988,809	37,74
989,188	37,21
989,567	37,14
989,946	37,93
990,325	37,46
990,704	38,15
991,083	37,62
991,461	37,84
991,84	37,65
992,218	37,79
992,597	37,4
992,975	37,77
993,353	37,28
993,732	37,34
994,11	37,8
994,488	37,46
994,866	37,55
995,243	37,64
995,621	37,44
995,999	37,46
996,376	37,49
996,754	37,52
997,131	37,25
997,509	38,14
997,886	37,79
998,263	37,1
998,64	37,4
999,017	37,4
999,394	37,91
999,771	37,63
1000,148	37,55
1000,524	38,15
1000,901	38,24
1001,277	38,12
1001,654	38,07
1002,03	38,35
1002,406	38,05
1002,783	37,77
1003,159	38,24
1003,535	38,19
1003,911	37,43
1004,286	37,75
1004,662	37,53
1005,038	38,09
1005,414	38,12
1005,789	38,07
1006,164	38,03
1006,54	38,16
1006,915	38
1007,29	37,46
1007,665	38,95
1008,04	37,8
1008,415	37,86
1008,79	38,92
1009,165	37,9
1009,54	38,1
1009,914	38,04
1010,289	37,39
1010,663	38,32
1011,038	38,29
1011,412	37,68
1011,786	37,76
1012,16	38,16
1012,535	38,47
1012,909	38,17
1013,282	38,18
1013,656	37,98
1014,03	38,31
1014,404	37,97
1014,777	38,06
1015,151	38,12
1015,524	38,29
1015,897	37,17
1016,271	38,06
1016,644	37,66
1017,017	37,88
1017,39	38,91
1017,763	37,83
1018,136	38,57
1018,508	37,77
1018,881	37,73
1019,254	38,55
1019,626	38,19
1019,999	38,24
1020,371	39,35
1020,743	37,33
1021,116	37,3
1021,488	37,8
1021,86	38,02
1022,232	38,24
1022,604	38,64
1022,975	38,92
1023,347	38,79
1023,719	38,69
1024,09	38,41
1024,462	38,14
1024,833	39,12
1025,204	38,37
1025,576	38,44
1025,947	38,35
1026,318	37,83
1026,689	38,85
1027,06	38,52
1027,431	38,48
1027,801	37,94
1028,172	39,15
1028,543	39,59
1028,913	38,35
1029,284	38,5
1029,654	38,82
1030,024	37,85
1030,394	38,17
1030,764	39,2
1031,135	38,87
1031,504	38,94
1031,874	38,22
1032,244	38,81
1032,614	39,09
1032,983	38,07
1033,353	39,32
1033,722	38,52
1034,092	39,11
1034,461	38,35
1034,83	38,1
1035,2	39,19
1035,569	38,84
1035,938	39,1
1036,307	39,07
1036,675	39,34
1037,044	39,33
1037,413	38,8
1037,781	38,85
1038,15	39,94
1038,518	38,32
1038,887	38,6
1039,255	39,09
1039,623	38,66
1039,991	40,26
1040,359	39,7
1040,727	38,75
1041,095	39,33
1041,463	38,72
1041,831	39,83
1042,198	39,12
1042,566	38,31
1042,933	39,61
1043,301	38,52
1043,668	39,76
1044,035	39,34
1044,402	39,65
1044,77	38,91
1045,137	40,09
1045,503	40,37
1045,87	38,9
1046,237	39,06
1046,604	39,55
1046,97	40,76
1047,337	38,36
1047,703	40,36
1048,07	39,15
1048,436	37,75
1048,802	38,81
1049,168	40,3
1049,534	39,7
1049,9	40,1
1050,266	40,16
1050,632	40,16
1050,998	39,32
1051,364	39,83
1051,729	39,74
1052,095	40,03
1052,46	40,07
1052,825	40,14
1053,191	39,27
1053,556	40,44
1053,921	39,15
1054,286	40,31
1054,651	39,66
1055,016	39,55
1055,381	39,53
1055,745	39,1
1056,11	38,58
1056,475	39,08
1056,839	39,98
1057,203	39,27
1057,568	39,68
1057,932	39,78
1058,296	41,23
1058,66	40,55
1059,024	40,05
1059,388	40,49
1059,752	41,03
1060,116	41,83
1060,48	40,27
1060,843	38,87
1061,207	40,15
1061,57	39,49
1061,934	40,82
1062,297	39,02
1062,66	40,94
1063,023	42,15
1063,386	40,69
1063,749	40,43
1064,112	39,68
1064,475	41,05
1064,838	40,6
1065,201	40,71
1065,563	40,75
1065,926	40,16
1066,288	40,3
1066,651	40,34
1067,013	40,58
1067,375	39,44
1067,737	41,5
1068,099	41,55
1068,461	38,86
1068,823	40,66
1069,185	39,08
1069,547	42,14
1069,909	40,97
1070,27	41,09
1070,632	42,32
1070,993	41,21
1071,355	41,48
1071,716	40,27
1072,077	40,86
1072,438	38,68
1072,799	40,16
1073,16	41,71
1073,521	41,36
1073,882	41,68
1074,243	39,18
1074,603	39,54
1074,964	40,39
1075,325	41,14
1075,685	40,7
1076,045	40,25
1076,406	41,69
1076,766	40,49
1077,126	41,99
1077,486	40,11
1077,846	42,29
1078,206	42,42
1078,566	41,75
1078,925	39,72
1079,285	40,09
1079,645	41,68
1080,004	40,19
1080,364	42,83
1080,723	39,69
1081,082	41,2
1081,442	42,64
1081,801	40,99
1082,16	41,04
1082,519	44,11
1082,878	42,73
1083,237	40,81
1083,595	41,44
1083,954	41,29
1084,313	40,74
1084,671	41,11
1085,03	41,35
1085,388	42,37
1085,746	43,67
1086,104	41,01
1086,463	41,28
1086,821	42,84
1087,179	41,61
1087,537	40,13
1087,894	43,17
1088,252	42,1
1088,61	41,51
1088,967	43,1
1089,325	44,67
1089,682	43,35
1090,04	44,11
1090,397	44,64
1090,754	44,55
1091,111	41,75
1091,469	40,78
1091,826	41,49
1092,182	41,36
1092,539	41,74
1092,896	42,66
1093,253	41,14
1093,609	41,7
1093,966	40,71
1094,322	41,88
1094,679	43,23
1095,035	43,06
1095,391	41,82
1095,748	45,07
1096,104	44,2
1096,46	42,82
1096,816	44,28
1097,171	42,69
1097,527	42,49
1097,883	43,52
1098,239	43,87
1098,594	43,42
1098,95	45,31
1099,305	45,37
1099,66	46,37
1100,016	41,99
1100,371	43,54
1100,726	42,33
1101,081	45,13
1101,436	42,39
1101,791	45,29
1102,146	48,41
1102,5	41,01
1102,855	43,76
1103,21	46,24
1103,564	43,87
1103,918	43,59
1104,273	45,62
1104,627	45,93
1104,981	44,9
1105,335	44,55
1105,69	44,78
1106,043	44,04
1106,397	43,63
1106,751	47,16
1107,105	45,34
1107,459	46,04
1107,812	48,54
1108,166	46,07
1108,519	45,48
1108,873	44,75
1109,226	48,76
1109,579	47,84
1109,932	43,9
1110,285	47,08
1110,638	42,26
1110,991	43,86
1111,344	43,46
1111,697	45,72
1112,05	44,8
1112,402	46,28
1112,755	44,35
1113,107	45,95
1113,46	49,64
1113,812	48,18
1114,164	47,21
1114,517	49,7
1114,869	123,33
1115,221	129,51
1115,573	158,46
1115,924	112,68
