Data from I4__Relative__5__00113.txt Node

Date: Thu Feb 01 16:28:32 CET 2024
User: diatiterra
Spectrometer: HDX00911
Trigger mode: 0
Integration Time (sec): 6,000000E-3
Scans to average: 2
Nonlinearity correction enabled: false
Boxcar width: 0
Storing dark spectrum: false
XAxis mode: Wavelengths
Number of Pixels in Spectrum: 2068
>>>>>Begin Spectral Data<<<<<
194,468	241,54
195,025	113,89
195,581	165,15
196,138	129,41
196,694	126,37
197,251	112,7
197,807	78,49
198,363	76,33
198,919	73,37
199,474	81,53
200,03	84,09
200,586	86,08
201,141	62,37
201,696	73,41
202,251	71,82
202,806	75,29
203,361	71,58
203,916	81,08
204,471	72,83
205,025	73,51
205,58	73,41
206,134	82,45
206,688	70,68
207,242	88,95
207,796	71,21
208,35	77,91
208,904	65,54
209,457	77,06
210,011	77,3
210,564	82,26
211,117	87,58
211,67	82,02
212,223	80,93
212,776	72,19
213,329	83,42
213,881	78,24
214,434	74
214,986	78,31
215,538	73,37
216,09	71,88
216,642	86,14
217,194	82,94
217,746	75,43
218,297	71,67
218,849	84,88
219,4	73,33
219,951	94,29
220,502	70,41
221,053	77,38
221,604	88,76
222,155	78,61
222,705	76,61
223,256	78,09
223,806	66,86
224,356	68,04
224,906	83,64
225,456	72,19
226,006	70,49
226,556	72,43
227,106	76,83
227,655	75,39
228,204	74,01
228,754	88,51
229,303	81,18
229,852	81,11
230,401	89,51
230,949	76,84
231,498	77,13
232,047	77,78
232,595	79,89
233,143	88,95
233,691	79,12
234,239	68,85
234,787	79,65
235,335	93,02
235,883	73,68
236,43	87,74
236,978	76,06
237,525	66,83
238,072	71,67
238,619	93,9
239,166	72,06
239,713	78,77
240,26	85,38
240,806	81,6
241,353	77,33
241,899	79,12
242,445	73,96
242,991	77,84
243,537	84,31
244,083	80,77
244,629	70
245,174	79,31
245,72	67,6
246,265	58,12
246,81	75
247,355	78,57
247,9	79,41
248,445	83,44
248,99	77,78
249,534	84,27
250,079	78,31
250,623	66,85
251,168	77,01
251,712	77,06
252,256	73,29
252,8	70,62
253,343	83,52
253,887	69,4
254,43	76,14
254,974	75,42
255,517	79,1
256,06	82,39
256,603	79,78
257,146	74,03
257,689	75,13
258,232	69,31
258,774	82,74
259,317	68,68
259,859	71,2
260,401	71,91
260,943	80,25
261,485	80,54
262,027	77,78
262,569	89,4
263,11	74,01
263,652	80,77
264,193	72,73
264,734	77,19
265,275	68,75
265,816	74,05
266,357	74,07
266,898	67,17
267,438	79,11
267,979	70,45
268,519	75
269,059	77,11
269,6	72,13
270,14	59,18
270,68	69,86
271,219	68,97
271,759	84,62
272,298	78,92
272,838	73,1
273,377	80,45
273,916	73,15
274,455	73,85
274,994	75
275,533	80,24
276,072	80,84
276,61	79,88
277,149	80,59
277,687	79,52
278,225	81,76
278,763	82,66
279,301	69,68
279,839	79,79
280,377	79,5
280,914	73,2
281,452	83,8
281,989	82,35
282,526	94,94
283,064	78,12
283,601	79,78
284,137	84,66
284,674	80,9
285,211	82,26
285,747	78,89
286,284	82,35
286,82	72,92
287,356	72,16
287,892	79,56
288,428	76,44
288,964	80,65
289,5	79,19
290,035	78,41
290,571	76,19
291,106	80,34
291,641	80,81
292,176	79,03
292,711	85,47
293,246	83,15
293,781	77,9
294,315	71,43
294,85	81,29
295,384	83,24
295,918	76,6
296,453	78,38
296,987	74,32
297,52	70,11
298,054	93,68
298,588	85,37
299,121	79,89
299,655	85,88
300,188	96
300,721	85,09
301,254	80,95
301,787	92,47
302,32	73,58
302,853	89,94
303,385	80,98
303,918	80
304,45	73,98
304,982	80,79
305,514	75,53
306,046	78,8
306,578	86,1
307,11	80,66
307,641	85,16
308,173	80,9
308,704	82,39
309,236	77,66
309,767	81,58
310,298	93,71
310,829	76,5
311,359	71,01
311,89	77,78
312,421	78,38
312,951	84,57
313,481	84,71
314,012	69,79
314,542	82,98
315,072	77,35
315,601	81,17
316,131	72,34
316,661	83,52
317,19	76,88
317,72	77,71
318,249	67,78
318,778	87,76
319,307	84,9
319,836	88,7
320,365	83,6
320,893	83,42
321,422	83,33
321,95	90,62
322,479	99,39
323,007	91,57
323,535	90,17
324,063	80,79
324,591	80,95
325,118	83,33
325,646	80,85
326,173	78,14
326,701	73,33
327,228	78,53
327,755	84,77
328,282	78,77
328,809	84,12
329,336	69,15
329,862	74,29
330,389	69,59
330,915	72,54
331,441	80,7
331,968	87,08
332,494	78,06
333,02	78,21
333,545	73,54
334,071	68,21
334,597	80,9
335,122	65,96
335,648	59,62
336,173	70,27
336,698	76,06
337,223	66,84
337,748	64,68
338,272	64,89
338,797	80,33
339,322	62,16
339,846	77,42
340,37	65,57
340,894	59,2
341,419	79,31
341,942	57,67
342,466	69,43
342,99	69,11
343,514	56,37
344,037	67,55
344,56	66,51
345,084	66,17
345,607	66,02
346,13	64,79
346,653	66,82
347,175	62,2
347,698	61,31
348,221	62,44
348,743	52,94
349,265	58,62
349,787	60,98
350,309	54,66
350,831	53,56
351,353	63,51
351,875	55,06
352,397	50
352,918	55,42
353,439	58,23
353,961	53,54
354,482	62,13
355,003	54,32
355,524	51,85
356,044	56,85
356,565	53,25
357,086	46,82
357,606	45,96
358,126	47,89
358,646	50,56
359,167	53,04
359,687	52,79
360,206	57,04
360,726	57,59
361,246	46,42
361,765	47,1
362,285	56,88
362,804	52,88
363,323	48,58
363,842	51,41
364,361	45,99
364,88	44,98
365,398	45,96
365,917	46,3
366,435	44
366,954	49,19
367,472	44,94
367,99	45,13
368,508	41,33
369,026	44,87
369,544	42,45
370,061	43,03
370,579	44,14
371,096	36,64
371,613	44,44
372,131	38,26
372,648	39,6
373,165	38,9
373,681	37,65
374,198	40,11
374,715	43,59
375,231	36,46
375,747	36,24
376,264	38,9
376,78	35,03
377,296	29,09
377,812	33,16
378,327	33,83
378,843	35,29
379,359	36,79
379,874	34,99
380,389	29,8
380,905	32,04
381,42	34
381,935	29,64
382,449	29,55
382,964	27,44
383,479	26,13
383,993	31,47
384,508	30,45
385,022	29,4
385,536	27,26
386,05	26,93
386,564	29,13
387,078	27,24
387,592	26,37
388,105	24,3
388,619	26,88
389,132	24,22
389,645	24,48
390,158	27,19
390,671	21,65
391,184	21,04
391,697	22,47
392,21	23,49
392,722	22,71
393,235	21,4
393,747	21,57
394,259	22,54
394,771	22,92
395,283	23,75
395,795	19,97
396,307	19,85
396,818	20,82
397,33	19,18
397,841	20,68
398,353	18,3
398,864	20,51
399,375	18,37
399,886	15,56
400,397	15,69
400,907	16,45
401,418	15,78
401,928	17
402,439	16,67
402,949	15,53
403,459	16,13
403,969	14,61
404,479	13,61
404,989	14,05
405,498	13,11
406,008	13,01
406,517	13,45
407,027	12,05
407,536	11,6
408,045	12,97
408,554	12,26
409,063	11,78
409,572	11,35
410,08	10,04
410,589	10,2
411,097	9,26
411,606	8,82
412,114	8,46
412,622	7,97
413,13	9,2
413,638	7,98
414,145	6,96
414,653	7,86
415,16	8,55
415,668	8,07
416,175	7,3
416,682	6,74
417,189	6,92
417,696	6,67
418,203	6,62
418,71	6,28
419,216	6,71
419,723	5,88
420,229	5,38
420,735	6,28
421,242	5,54
421,748	5,28
422,254	5,53
422,759	5,49
423,265	4,93
423,771	5,87
424,276	5,05
424,781	5,58
425,287	4,75
425,792	5,41
426,297	5,01
426,802	4,54
427,306	4,81
427,811	4,77
428,316	4,63
428,82	4,92
429,324	4,5
429,829	4,6
430,333	4,45
430,837	4,31
431,34	4,47
431,844	4,13
432,348	4,41
432,851	4
433,355	4,14
433,858	4,17
434,361	4,15
434,864	4,37
435,367	4,19
435,87	4,31
436,373	4,2
436,876	3,87
437,378	3,84
437,88	3,98
438,383	3,94
438,885	3,84
439,387	4,34
439,889	3,87
440,391	3,65
440,892	3,98
441,394	3,95
441,896	4,05
442,397	3,87
442,898	4,12
443,399	3,48
443,9	3,52
444,401	3,7
444,902	3,78
445,403	3,58
445,903	3,7
446,404	4,06
446,904	3,46
447,405	3,89
447,905	3,81
448,405	3,82
448,905	3,67
449,404	3,81
449,904	3,73
450,404	3,82
450,903	3,7
451,403	3,82
451,902	3,98
452,401	3,75
452,9	3,8
453,399	3,49
453,898	3,44
454,396	3,68
454,895	3,77
455,393	3,84
455,892	3,8
456,39	3,6
456,888	3,28
457,386	3,72
457,884	3,37
458,382	3,41
458,879	3,57
459,377	3,41
459,874	3,77
460,372	3,46
460,869	3,47
461,366	3,37
461,863	3,53
462,36	3,53
462,857	3,79
463,353	3,36
463,85	3,58
464,346	3,64
464,843	3,51
465,339	3,43
465,835	3,48
466,331	3,74
466,827	3,58
467,323	3,44
467,818	3,46
468,314	3,44
468,809	3,16
469,305	3,19
469,8	3,4
470,295	3,61
470,79	3,29
471,285	3,45
471,78	3,55
472,274	3,51
472,769	2,94
473,263	3,5
473,758	3,12
474,252	3,63
474,746	3,38
475,24	3,38
475,734	3,28
476,228	3,32
476,721	3,18
477,215	3,22
477,708	3,46
478,202	3,18
478,695	3,48
479,188	3,18
479,681	3,68
480,174	2,9
480,667	3,26
481,159	3,22
481,652	3,19
482,144	3,37
482,637	3,05
483,129	3,12
483,621	3,12
484,113	3,08
484,605	3,4
485,097	3,35
485,588	3,13
486,08	3,43
486,571	3,31
487,063	3,22
487,554	3,5
488,045	3,6
488,536	3,05
489,027	3,1
489,518	3,19
490,008	3,36
490,499	3,33
490,989	3,28
491,48	3,38
491,97	3,18
492,46	3,48
492,95	3,14
493,44	3,59
493,93	3,14
494,419	3,12
494,909	3,29
495,398	3,47
495,888	3,35
496,377	3,55
496,866	3,55
497,355	3,55
497,844	3,53
498,333	3,36
498,821	3,5
499,31	3,5
499,798	3,6
500,287	3,77
500,775	3,55
501,263	3,82
501,751	3,6
502,239	4,01
502,727	3,69
503,215	3,91
503,702	4,2
504,19	3,94
504,677	4,19
505,164	4,16
505,651	4,01
506,139	4,31
506,625	4,06
507,112	3,96
507,599	4,43
508,086	4,4
508,572	4,44
509,058	4,66
509,545	4,67
510,031	5,03
510,517	4,97
511,003	4,99
511,489	4,96
511,974	5,04
512,46	5,39
512,946	5,25
513,431	5,44
513,916	5,6
514,401	5,6
514,887	5,81
515,371	5,75
515,856	5,77
516,341	6,16
516,826	6,48
517,31	6,43
517,795	6,32
518,279	6,81
518,763	6,66
519,247	6,56
519,731	7,07
520,215	7,26
520,699	7,33
521,182	7,56
521,666	7,85
522,149	7,64
522,633	8,02
523,116	8,07
523,599	8,07
524,082	8,16
524,565	8,56
525,048	8,6
525,53	8,89
526,013	8,69
526,495	9,09
526,978	8,86
527,46	9,67
527,942	9,76
528,424	9,74
528,906	9,78
529,388	9,76
529,87	9,9
530,351	10,41
530,833	10,25
531,314	10,21
531,795	10,52
532,277	10,36
532,758	10,5
533,238	10,7
533,719	10,73
534,2	10,46
534,681	10,73
535,161	10,92
535,642	10,93
536,122	11,03
536,602	11,05
537,082	11,3
537,562	11,31
538,042	11,44
538,522	11,38
539,001	11,33
539,481	11,02
539,96	11,35
540,44	11,36
540,919	11,33
541,398	11,48
541,877	11,36
542,356	11,61
542,835	11,31
543,313	11,59
543,792	11,57
544,27	11,42
544,749	11,52
545,227	11,68
545,705	11,56
546,183	11,82
546,661	11,52
547,139	11,67
547,616	11,93
548,094	12,01
548,571	11,83
549,049	11,88
549,526	11,74
550,003	11,94
550,48	12,09
550,957	11,75
551,434	11,72
551,911	11,73
552,387	11,91
552,864	11,8
553,34	12,1
553,817	11,59
554,293	12,06
554,769	11,94
555,245	12,01
555,721	11,81
556,197	11,65
556,672	11,9
557,148	11,96
557,623	11,82
558,099	12
558,574	11,65
559,049	11,76
559,524	11,68
559,999	11,55
560,474	11,79
560,948	11,45
561,423	11,57
561,897	11,56
562,372	11,22
562,846	11,58
563,32	11,14
563,794	11,47
564,268	11,07
564,742	11,2
565,216	11,13
565,69	11,08
566,163	11,1
566,636	11,06
567,11	10,71
567,583	10,83
568,056	10,66
568,529	10,56
569,002	10,6
569,475	10,27
569,947	10,3
570,42	9,95
570,892	10,15
571,365	10,27
571,837	9,86
572,309	9,71
572,781	9,51
573,253	9,42
573,725	9,61
574,197	9,39
574,668	9,56
575,14	9,2
575,611	9,04
576,082	9,1
576,554	9,15
577,025	8,9
577,496	8,56
577,967	8,71
578,437	8,58
578,908	8,74
579,379	8,45
579,849	8,27
580,319	8,33
580,79	8,18
581,26	8,4
581,73	8,2
582,2	8,19
582,669	7,98
583,139	8,25
583,609	7,99
584,078	7,95
584,548	7,74
585,017	7,77
585,486	7,91
585,955	7,78
586,424	7,71
586,893	7,65
587,362	7,6
587,83	7,61
588,299	7,5
588,767	7,59
589,236	7,56
589,704	7,34
590,172	7,41
590,64	7,31
591,108	7,32
591,576	7,32
592,043	7,01
592,511	7,18
592,978	7,2
593,446	7,31
593,913	7,15
594,38	7,12
594,847	7
595,314	7,05
595,781	7,1
596,248	7,02
596,715	6,89
597,181	7,01
597,647	7,04
598,114	6,9
598,58	6,79
599,046	6,97
599,512	6,81
599,978	6,89
600,444	6,72
600,91	6,82
601,375	6,83
601,841	6,74
602,306	6,69
602,771	6,72
603,236	6,83
603,702	6,59
604,167	6,73
604,631	6,55
605,096	6,45
605,561	6,63
606,025	6,62
606,49	6,55
606,954	6,43
607,418	6,43
607,882	6,44
608,347	6,32
608,81	6,38
609,274	6,26
609,738	6,12
610,202	6,36
610,665	6,18
611,128	6,16
611,592	6,18
612,055	5,93
612,518	6,14
612,981	6,07
613,444	5,94
613,907	6
614,369	5,9
614,832	5,78
615,294	5,95
615,757	5,81
616,219	5,86
616,681	5,89
617,143	5,65
617,605	5,59
618,067	5,67
618,529	5,68
618,99	5,44
619,452	5,54
619,913	5,45
620,375	5,37
620,836	5,42
621,297	5,55
621,758	5,3
622,219	5,29
622,68	5,22
623,14	5,36
623,601	5,37
624,061	5,22
624,522	5,29
624,982	5,2
625,442	5,17
625,902	5,27
626,362	5,22
626,822	5,11
627,282	5,34
627,742	5,1
628,201	5,05
628,661	5,18
629,12	5,07
629,579	5,07
630,038	5,13
630,497	5,2
630,956	5,11
631,415	5,09
631,874	5,03
632,332	4,99
632,791	4,97
633,249	5,07
633,708	5,12
634,166	4,99
634,624	4,97
635,082	4,87
635,54	4,9
635,998	4,91
636,455	4,76
636,913	4,74
637,37	4,73
637,828	4,53
638,285	4,66
638,742	4,6
639,199	4,52
639,656	4,49
640,113	4,51
640,57	4,32
641,027	4,33
641,483	4,3
641,94	4,26
642,396	4,18
642,852	4,06
643,309	3,97
643,765	3,97
644,221	3,93
644,676	3,8
645,132	3,86
645,588	3,79
646,043	3,83
646,499	3,69
646,954	3,78
647,409	3,7
647,864	3,79
648,319	3,57
648,774	3,58
649,229	3,45
649,684	3,57
650,139	3,52
650,593	3,45
651,047	3,44
651,502	3,37
651,956	3,52
652,41	3,4
652,864	3,41
653,318	3,38
653,772	3,42
654,225	3,31
654,679	3,38
655,133	3,29
655,586	3,33
656,039	3,28
656,492	3,31
656,946	3,18
657,399	3,16
657,851	3,27
658,304	3,21
658,757	3,18
659,209	3,22
659,662	3,09
660,114	3,05
660,567	3,06
661,019	3
661,471	3,08
661,923	3,04
662,375	2,95
662,826	2,96
663,278	2,92
663,73	2,86
664,181	2,86
664,632	2,92
665,084	2,88
665,535	2,9
665,986	2,85
666,437	2,91
666,888	2,89
667,338	2,89
667,789	2,9
668,24	2,87
668,69	2,93
669,14	2,94
669,591	3
670,041	2,94
670,491	2,97
670,941	2,98
671,391	3,01
671,84	3
672,29	3,08
672,74	3,03
673,189	3,13
673,638	3,15
674,088	3,13
674,537	3,24
674,986	3,34
675,435	3,28
675,883	3,35
676,332	3,37
676,781	3,43
677,229	3,54
677,678	3,59
678,126	3,63
678,574	3,69
679,022	3,58
679,47	3,76
679,918	3,77
680,366	3,89
680,814	3,84
681,261	4,01
681,709	4,01
682,156	4,1
682,604	4,13
683,051	4,17
683,498	4,16
683,945	4,38
684,392	4,3
684,839	4,43
685,286	4,47
685,732	4,47
686,179	4,58
686,625	4,55
687,071	4,69
687,518	4,72
687,964	4,79
688,41	4,84
688,856	4,97
689,301	4,99
689,747	5,04
690,193	5,2
690,638	5,5
691,084	5,44
691,529	5,63
691,974	5,81
692,419	5,95
692,864	6,16
693,309	6,27
693,754	6,44
694,199	6,67
694,643	7,03
695,088	7,21
695,532	7,6
695,977	7,64
696,421	8,06
696,865	8,27
697,309	8,54
697,753	8,85
698,197	9,19
698,64	9,38
699,084	9,8
699,527	10,1
699,971	10,2
700,414	10,7
700,857	10,85
701,3	11,47
701,743	11,51
702,186	11,81
702,629	12,04
703,072	12,49
703,515	13,02
703,957	13
704,399	13,43
704,842	13,84
705,284	14,02
705,726	14,48
706,168	14,59
706,61	15,02
707,052	15,29
707,494	15,87
707,935	16,02
708,377	16,27
708,818	16,51
709,26	16,84
709,701	17,25
710,142	17,44
710,583	17,69
711,024	18,13
711,465	18,48
711,905	18,61
712,346	19,09
712,787	19,39
713,227	19,85
713,667	20,08
714,108	20,42
714,548	20,74
714,988	21,1
715,428	21,22
715,868	21,72
716,307	21,85
716,747	21,94
717,186	22,35
717,626	22,79
718,065	23,05
718,504	23,45
718,944	23,7
719,383	24,1
719,822	24,03
720,261	24,43
720,699	24,94
721,138	25,09
721,576	25,64
722,015	25,62
722,453	25,92
722,892	26,08
723,33	26,18
723,768	26,61
724,206	26,66
724,644	27,25
725,081	27,51
725,519	27,6
725,957	28,16
726,394	28,17
726,832	28,5
727,269	28,67
727,706	28,92
728,143	29,01
728,58	29,28
729,017	29,64
729,454	29,52
729,89	29,8
730,327	30,33
730,764	30,19
731,2	30,67
731,636	30,42
732,072	31
732,509	30,99
732,945	31,35
733,38	31,41
733,816	31,39
734,252	31,54
734,688	31,7
735,123	31,98
735,559	31,75
735,994	32,01
736,429	32,14
736,864	32,4
737,299	32,29
737,734	32,69
738,169	32,64
738,604	32,6
739,038	32,93
739,473	32,97
739,907	33,05
740,342	32,86
740,776	33,05
741,21	33,25
741,644	33,5
742,078	33,43
742,512	33,41
742,946	33,75
743,379	33,52
743,813	33,61
744,246	33,24
744,68	33,65
745,113	33,31
745,546	33,65
745,979	33,58
746,412	33,73
746,845	33,96
747,278	34,11
747,711	33,87
748,143	33,83
748,576	33,82
749,008	33,94
749,441	33,82
749,873	33,46
750,305	33,94
750,737	33,84
751,169	33,64
751,601	34,02
752,032	33,92
752,464	33,6
752,896	33,82
753,327	33,63
753,758	33,49
754,19	33,91
754,621	33,95
755,052	33,48
755,483	33,72
755,914	33,52
756,344	33,65
756,775	33,9
757,206	33,64
757,636	34
758,066	33,58
758,497	33,89
758,927	33,62
759,357	33,72
759,787	33,62
760,217	33,38
760,647	33,74
761,076	33,62
761,506	33,49
761,935	33,54
762,365	33,97
762,794	33,59
763,223	33,87
763,653	33,54
764,082	33,36
764,51	33,22
764,939	33,17
765,368	33,51
765,797	33,16
766,225	33,33
766,654	33,17
767,082	33,26
767,51	33,33
767,938	33,18
768,367	33,36
768,795	33,1
769,222	33,09
769,65	33,26
770,078	33,23
770,505	33,29
770,933	33,2
771,36	33,13
771,788	33,2
772,215	32,84
772,642	33,03
773,069	33,12
773,496	32,82
773,923	33,08
774,349	32,81
774,776	33,35
775,203	33,01
775,629	33,3
776,055	33,02
776,482	32,78
776,908	32,87
777,334	33,14
777,76	33,06
778,186	33,08
778,611	32,89
779,037	32,89
779,463	32,92
779,888	32,89
780,314	32,62
780,739	32,68
781,164	33,05
781,589	32,97
782,014	32,7
782,439	32,93
782,864	32,87
783,289	32,6
783,713	32,95
784,138	32,86
784,562	32,89
784,987	32,89
785,411	33,07
785,835	32,63
786,259	32,55
786,683	32,61
787,107	32,77
787,531	32,99
787,954	32,52
788,378	32,57
788,802	32,86
789,225	32,7
789,648	33,01
790,071	32,73
790,495	32,59
790,918	32,86
791,34	32,68
791,763	32,77
792,186	32,84
792,609	32,39
793,031	32,73
793,454	32,77
793,876	32,37
794,298	32,79
794,721	32,55
795,143	32,86
795,565	32,6
795,986	32,79
796,408	32,49
796,83	32,72
797,252	32,86
797,673	32,52
798,094	32,45
798,516	32,66
798,937	32,51
799,358	32,68
799,779	32,54
800,2	32,46
800,621	32,55
801,042	32,67
801,462	32,64
801,883	32,69
802,303	32,49
802,724	32,42
803,144	32,65
803,564	32,5
803,984	32,89
804,404	32,67
804,824	32,94
805,244	32,56
805,664	32,45
806,084	32,51
806,503	32,48
806,923	32,28
807,342	32,55
807,761	32,51
808,18	32,58
808,599	32,56
809,018	32,78
809,437	32,73
809,856	32,32
810,275	32,48
810,693	32,77
811,112	32,45
811,53	32,57
811,949	32,55
812,367	32,6
812,785	32,48
813,203	32,18
813,621	32,43
814,039	32,5
814,457	32,49
814,874	32,51
815,292	32,57
815,709	32,4
816,127	32,27
816,544	32,36
816,961	32,32
817,378	32,57
817,795	32,7
818,212	32,46
818,629	32,66
819,046	32,77
819,462	32,44
819,879	32,49
820,295	32,45
820,712	32,06
821,128	32,39
821,544	32,34
821,96	32,36
822,376	32,6
822,792	32,34
823,208	32,28
823,624	32,53
824,039	32,24
824,455	32,39
824,87	32,38
825,286	32,5
825,701	32,53
826,116	32,17
826,531	32,16
826,946	32,13
827,361	32,36
827,776	32,62
828,19	32
828,605	32,3
829,02	32,36
829,434	32,05
829,848	32,28
830,263	32,11
830,677	32,33
831,091	32,75
831,505	32,39
831,919	32,6
832,332	32,23
832,746	32,31
833,16	31,98
833,573	32,36
833,987	32,07
834,4	32,04
834,813	32,19
835,226	32,13
835,639	32,29
836,052	32,33
836,465	32,1
836,878	32,21
837,29	32,57
837,703	32,54
838,116	32,19
838,528	32,25
838,94	32,18
839,352	32,4
839,765	32,13
840,177	31,96
840,589	31,9
841	32,18
841,412	31,99
841,824	32,08
842,235	32,61
842,647	32,22
843,058	31,84
843,47	32,01
843,881	32,19
844,292	32,34
844,703	32,21
845,114	32,35
845,525	32,27
845,935	31,85
846,346	31,97
846,757	32,27
847,167	32,25
847,577	31,92
847,988	32,03
848,398	32,08
848,808	32,13
849,218	31,91
849,628	32,33
850,038	32,04
850,448	32,01
850,857	32,17
851,267	31,86
851,676	32,19
852,086	32,03
852,495	32,07
852,904	32,47
853,313	31,85
853,722	31,86
854,131	31,89
854,54	32,1
854,949	31,7
855,357	32,26
855,766	31,97
856,174	31,95
856,583	31,98
856,991	31,94
857,399	31,92
857,807	32,08
858,215	32
858,623	32,04
859,031	32,05
859,439	32,02
859,846	32,09
860,254	31,86
860,661	31,93
861,069	31,66
861,476	31,85
861,883	31,71
862,29	31,83
862,697	31,89
863,104	31,98
863,511	32,07
863,918	31,72
864,325	31,74
864,731	31,59
865,138	32,16
865,544	31,88
865,95	31,91
866,357	32,16
866,763	31,96
867,169	31,66
867,575	32,09
867,98	31,86
868,386	31,84
868,792	31,8
869,197	31,95
869,603	32,12
870,008	32,15
870,414	31,84
870,819	31,93
871,224	32,1
871,629	31,88
872,034	31,82
872,439	31,82
872,844	32,18
873,248	32,03
873,653	32,12
874,057	32,1
874,462	32,37
874,866	31,79
875,27	32,01
875,674	31,68
876,078	31,79
876,482	31,73
876,886	31,77
877,29	31,92
877,694	31,74
878,097	31,94
878,501	32,04
878,904	31,45
879,308	31,98
879,711	31,71
880,114	31,9
880,517	31,98
880,92	32,29
881,323	31,65
881,726	31,91
882,128	31,78
882,531	31,96
882,934	32,14
883,336	32,14
883,738	31,87
884,141	31,75
884,543	31,87
884,945	31,78
885,347	31,81
885,749	31,91
886,151	31,86
886,552	31,76
886,954	32,16
887,355	31,75
887,757	31,76
888,158	31,72
888,56	31,94
888,961	31,72
889,362	31,95
889,763	32,02
890,164	32,06
890,565	31,57
890,965	31,78
891,366	32,11
891,767	31,99
892,167	31,85
892,567	31,81
892,968	31,52
893,368	31,85
893,768	31,91
894,168	31,79
894,568	31,88
894,968	32,04
895,368	31,78
895,767	31,76
896,167	32,32
896,566	31,92
896,966	31,73
897,365	31,84
897,764	31,91
898,164	31,52
898,563	32,11
898,962	31,65
899,361	32,05
899,759	31,81
900,158	31,42
900,557	31,75
900,955	31,57
901,354	31,59
901,752	31,31
902,15	31,7
902,548	31,73
902,947	31,83
903,345	31,92
903,742	31,72
904,14	31,83
904,538	31,65
904,936	31,92
905,333	31,93
905,731	31,44
906,128	31,8
906,525	31,88
906,923	31,93
907,32	31,9
907,717	31,8
908,114	31,73
908,511	31,65
908,907	31,89
909,304	31,58
909,701	31,9
910,097	31,76
910,494	31,62
910,89	31,78
911,286	31,92
911,682	31,78
912,078	31,99
912,474	31,66
912,87	31,53
913,266	31,7
913,662	31,75
914,058	31,88
914,453	32,05
914,849	31,66
915,244	32,04
915,639	32,1
916,034	31,69
916,43	31,66
916,825	31,83
917,22	31,66
917,614	31,82
918,009	31,23
918,404	31,91
918,798	31,73
919,193	31,66
919,587	31,7
919,982	32,06
920,376	31,9
920,77	31,93
921,164	31,64
921,558	31,66
921,952	31,99
922,346	31,64
922,74	31,64
923,133	31,71
923,527	31,96
923,92	31,69
924,314	31,49
924,707	31,53
925,1	31,65
925,493	31,54
925,886	31,91
926,279	31,77
926,672	31,75
927,065	31,64
927,457	31,52
927,85	31,75
928,243	31,39
928,635	31,6
929,027	31,59
929,42	31,8
929,812	31,62
930,204	32,17
930,596	31,89
930,988	31,52
931,379	31,5
931,771	31,24
932,163	31,57
932,554	31,4
932,946	31,75
933,337	31,59
933,729	31,51
934,12	31,04
934,511	31,25
934,902	31,29
935,293	31,7
935,684	31,43
936,075	31,86
936,465	31,01
936,856	31,62
937,246	31,97
937,637	31,51
938,027	31,42
938,417	31,79
938,808	31,54
939,198	31,52
939,588	31,95
939,978	31,48
940,368	31,72
940,757	31,79
941,147	32,23
941,537	31,95
941,926	31,08
942,315	30,93
942,705	31,17
943,094	31,05
943,483	31,8
943,872	31,34
944,261	31
944,65	31,7
945,039	31,55
945,428	31,12
945,816	31,48
946,205	31,45
946,593	31,69
946,982	31,28
947,37	31,48
947,758	31,48
948,146	31,59
948,534	32,5
948,922	31,36
949,31	30,88
949,698	31,72
950,086	30,89
950,473	31,7
950,861	31,47
951,248	30,9
951,636	31,49
952,023	30,94
952,41	30,87
952,797	29,96
953,184	30,4
953,571	31,05
953,958	30,73
954,345	30,81
954,731	31,24
955,118	30,62
955,505	30,17
955,891	30,86
956,277	30,47
956,664	30,87
957,05	30,88
957,436	30,57
957,822	30,45
958,208	30,28
958,594	30,77
958,979	30,35
959,365	30,37
959,751	30,32
960,136	30,26
960,522	30,78
960,907	30,3
961,292	30,25
961,677	30,42
962,062	30,2
962,447	30,67
962,832	30,02
963,217	30,4
963,602	30,19
963,986	30,69
964,371	30,57
964,756	29,98
965,14	30,03
965,524	29,91
965,908	30,45
966,293	29,9
966,677	30,51
967,061	30,04
967,445	30,12
967,828	30,01
968,212	30,2
968,596	30,27
968,979	29,96
969,363	30,22
969,746	30,2
970,129	30,51
970,513	30,4
970,896	29,94
971,279	30,31
971,662	30,28
972,045	29,63
972,428	29,75
972,81	29,77
973,193	30,24
973,575	30,05
973,958	30,53
974,34	30,28
974,723	30,52
975,105	29,84
975,487	30,29
975,869	30,58
976,251	30,42
976,633	30,04
977,015	30,6
977,396	30,14
977,778	30,16
978,16	30,32
978,541	30,49
978,922	30,52
979,304	30,49
979,685	29,93
980,066	30,3
980,447	30,2
980,828	30,09
981,209	30,2
981,59	29,71
981,97	30,54
982,351	30,27
982,732	30,51
983,112	30,53
983,493	30,36
983,873	30,55
984,253	30,4
984,633	30,22
985,013	30,39
985,393	30,5
985,773	30,36
986,153	29,78
986,533	30,18
986,912	30,58
987,292	30,74
987,671	30,27
988,051	30,61
988,43	30,42
988,809	30,19
989,188	30,69
989,567	30,22
989,946	30,55
990,325	29,94
990,704	30,59
991,083	30,23
991,461	30,36
991,84	30,55
992,218	30,21
992,597	30,34
992,975	30,14
993,353	30,26
993,732	30,36
994,11	30,2
994,488	30,03
994,866	30,24
995,243	30,39
995,621	30,75
995,999	30,56
996,376	30,75
996,754	30,83
997,131	30,9
997,509	30,6
997,886	30,08
998,263	30,66
998,64	30,52
999,017	30,62
999,394	30,61
999,771	30,44
1000,148	30,33
1000,524	30,81
1000,901	30,83
1001,277	31,47
1001,654	30,74
1002,03	30,4
1002,406	30,55
1002,783	31
1003,159	31,41
1003,535	30,99
1003,911	30,62
1004,286	30,53
1004,662	30,98
1005,038	30,97
1005,414	31,05
1005,789	31,28
1006,164	30,54
1006,54	31,04
1006,915	31,26
1007,29	31,13
1007,665	31,12
1008,04	31,14
1008,415	30,58
1008,79	31,73
1009,165	30,97
1009,54	31,09
1009,914	31,31
1010,289	30,85
1010,663	31,33
1011,038	30,92
1011,412	31,29
1011,786	31,27
1012,16	31,34
1012,535	30,68
1012,909	30,69
1013,282	31,8
1013,656	31,24
1014,03	31,26
1014,404	31,25
1014,777	32,06
1015,151	31,36
1015,524	31,17
1015,897	31,76
1016,271	31,01
1016,644	31,17
1017,017	31,49
1017,39	31,39
1017,763	32,04
1018,136	31,55
1018,508	31,79
1018,881	31,2
1019,254	31,18
1019,626	31,03
1019,999	31,35
1020,371	31,47
1020,743	31
1021,116	30,8
1021,488	31,24
1021,86	31,4
1022,232	31,5
1022,604	31,13
1022,975	32,07
1023,347	31,38
1023,719	31,7
1024,09	31,36
1024,462	31,92
1024,833	31,75
1025,204	31,76
1025,576	30,85
1025,947	31,83
1026,318	30,98
1026,689	31,85
1027,06	31,91
1027,431	31,59
1027,801	31,05
1028,172	32,36
1028,543	31,48
1028,913	32,48
1029,284	32,15
1029,654	32,38
1030,024	31,09
1030,394	31,89
1030,764	32,12
1031,135	31,56
1031,504	32,32
1031,874	31,49
1032,244	31,93
1032,614	32,57
1032,983	31,8
1033,353	32,17
1033,722	31,31
1034,092	31,51
1034,461	31,84
1034,83	32,23
1035,2	32,26
1035,569	32,27
1035,938	32,75
1036,307	32,52
1036,675	32,24
1037,044	32,12
1037,413	32,04
1037,781	32,22
1038,15	33,39
1038,518	32
1038,887	32,35
1039,255	32,34
1039,623	32,64
1039,991	33,24
1040,359	32,45
1040,727	31,59
1041,095	31,5
1041,463	32,53
1041,831	33,11
1042,198	32,73
1042,566	32,19
1042,933	32,62
1043,301	31,91
1043,668	32,89
1044,035	32,61
1044,402	33,17
1044,77	32,99
1045,137	33,57
1045,503	32,84
1045,87	33,05
1046,237	32,22
1046,604	32,05
1046,97	34,12
1047,337	33,25
1047,703	33,32
1048,07	33,7
1048,436	31,78
1048,802	32,18
1049,168	34,26
1049,534	33,33
1049,9	33,38
1050,266	33,36
1050,632	33,68
1050,998	32,89
1051,364	34,66
1051,729	32,47
1052,095	33,18
1052,46	32,58
1052,825	32,87
1053,191	34,13
1053,556	34
1053,921	32,86
1054,286	34,39
1054,651	34,27
1055,016	32,45
1055,381	33,57
1055,745	33,99
1056,11	34,37
1056,475	34,04
1056,839	34,3
1057,203	33,4
1057,568	34,29
1057,932	33,11
1058,296	34,3
1058,66	33,89
1059,024	32,63
1059,388	33,55
1059,752	34,96
1060,116	33,08
1060,48	34,14
1060,843	33,24
1061,207	33,41
1061,57	33,97
1061,934	35
1062,297	34,18
1062,66	35,08
1063,023	34,58
1063,386	33,47
1063,749	34,12
1064,112	33,86
1064,475	33,79
1064,838	34,71
1065,201	34,85
1065,563	34,58
1065,926	34,18
1066,288	32,89
1066,651	35,39
1067,013	34,59
1067,375	34,46
1067,737	35,07
1068,099	34,48
1068,461	33,49
1068,823	35,7
1069,185	34,06
1069,547	35,25
1069,909	34,95
1070,27	35,01
1070,632	35,07
1070,993	35,97
1071,355	33,99
1071,716	34,21
1072,077	36,34
1072,438	34,87
1072,799	34,42
1073,16	35,29
1073,521	35,25
1073,882	34,95
1074,243	33,76
1074,603	34,68
1074,964	35,56
1075,325	35,81
1075,685	36,27
1076,045	34,19
1076,406	34,85
1076,766	33,9
1077,126	34,51
1077,486	34,1
1077,846	36,23
1078,206	34,53
1078,566	37,48
1078,925	34,62
1079,285	36,06
1079,645	36,45
1080,004	33,18
1080,364	37,4
1080,723	34,96
1081,082	35,45
1081,442	37,25
1081,801	35,45
1082,16	34,04
1082,519	36,09
1082,878	36,59
1083,237	32,85
1083,595	36,69
1083,954	36,67
1084,313	34,61
1084,671	35,7
1085,03	36,96
1085,388	37,47
1085,746	36,52
1086,104	33,93
1086,463	36,33
1086,821	35,35
1087,179	36,44
1087,537	36,77
1087,894	37,94
1088,252	34,95
1088,61	36,02
1088,967	35,46
1089,325	38,32
1089,682	36,31
1090,04	39,07
1090,397	38,62
1090,754	37,35
1091,111	36,52
1091,469	36,93
1091,826	34,9
1092,182	35,15
1092,539	35,79
1092,896	36,98
1093,253	37,96
1093,609	36,88
1093,966	36,09
1094,322	37,85
1094,679	38,19
1095,035	36,6
1095,391	37,59
1095,748	39,06
1096,104	38,33
1096,46	37,43
1096,816	39,19
1097,171	38,02
1097,527	36,76
1097,883	37,93
1098,239	38,21
1098,594	39,07
1098,95	38,51
1099,305	37,06
1099,66	39,79
1100,016	37,13
1100,371	38,38
1100,726	37,67
1101,081	36
1101,436	38,49
1101,791	39,98
1102,146	38,12
1102,5	37,48
1102,855	40,57
1103,21	41,18
1103,564	38,21
1103,918	37,72
1104,273	38,94
1104,627	41,06
1104,981	40,7
1105,335	41,88
1105,69	41,46
1106,043	40,63
1106,397	41,49
1106,751	43,37
1107,105	41,47
1107,459	40,86
1107,812	43,11
1108,166	39,46
1108,519	43,91
1108,873	42,4
1109,226	41,1
1109,579	41,59
1109,932	42,76
1110,285	42,67
1110,638	41,34
1110,991	40,7
1111,344	42,14
1111,697	39,11
1112,05	43,91
1112,402	42,05
1112,755	41,24
1113,107	41,12
1113,46	45,99
1113,812	45,15
1114,164	48,76
1114,517	45,82
1114,869	150
1115,221	162,3
1115,573	160
1115,924	129,58
