Data from G_2_Relative__0__00135.txt Node

Date: Tue Jan 30 10:09:37 CET 2024
User: diatiterra
Spectrometer: HDX00911
Trigger mode: 0
Integration Time (sec): 6,000000E-3
Scans to average: 2
Nonlinearity correction enabled: false
Boxcar width: 0
Storing dark spectrum: false
XAxis mode: Wavelengths
Number of Pixels in Spectrum: 2068
>>>>>Begin Spectral Data<<<<<
194,468	89,5
195,025	94,35
195,581	83,33
196,138	80,89
196,694	80,6
197,251	72,69
197,807	70,42
198,363	66,39
198,919	64,26
199,474	73,31
200,03	64,57
200,586	67,84
201,141	67,23
201,696	67,23
202,251	71,14
202,806	70,64
203,361	73,58
203,916	69,71
204,471	73,27
205,025	67,78
205,58	73,73
206,134	72,91
206,688	75,11
207,242	71,62
207,796	72,88
208,35	72,15
208,904	74,19
209,457	67,83
210,011	70,74
210,564	67,12
211,117	75,74
211,67	68,02
212,223	67,73
212,776	72,88
213,329	69,62
213,881	76,19
214,434	70,08
214,986	83,04
215,538	78,35
216,09	69,48
216,642	75,21
217,194	91,87
217,746	72,51
218,297	71,85
218,849	68,06
219,4	76,62
219,951	74,78
220,502	75,88
221,053	76,27
221,604	74,41
222,155	70,76
222,705	70,21
223,256	73,41
223,806	66,67
224,356	78,43
224,906	74,89
225,456	65,55
226,006	72,32
226,556	70,35
227,106	75,93
227,655	78,6
228,204	79,19
228,754	70,89
229,303	76,13
229,852	77,73
230,401	70,85
230,949	66,31
231,498	75,45
232,047	75,82
232,595	75,1
233,143	82,02
233,691	67,84
234,239	62,98
234,787	77,13
235,335	71
235,883	75,68
236,43	77,97
236,978	77,39
237,525	72,77
238,072	69,16
238,619	69,96
239,166	70,26
239,713	75,11
240,26	75
240,806	72,84
241,353	74,79
241,899	71,19
242,445	71,55
242,991	76,64
243,537	71
244,083	72,4
244,629	72,25
245,174	70,64
245,72	74,13
246,265	76,92
246,81	74,67
247,355	70,8
247,9	75
248,445	67,06
248,99	73,19
249,534	73,21
250,079	79,63
250,623	74,78
251,168	72,24
251,712	69,43
252,256	64,46
252,8	79,65
253,343	72,87
253,887	74,03
254,43	71,85
254,974	77,2
255,517	63,46
256,06	64,98
256,603	75,31
257,146	70,77
257,689	72,03
258,232	71,04
258,774	73,13
259,317	71,12
259,859	65,24
260,401	80,37
260,943	72,2
261,485	75,45
262,027	71,49
262,569	75,46
263,11	71,24
263,652	68,58
264,193	69,3
264,734	75,93
265,275	72,96
265,816	67,52
266,357	71,37
266,898	72,22
267,438	70,64
267,979	70,69
268,519	76,92
269,059	58,89
269,6	62,83
270,14	67,24
270,68	67,62
271,219	71,3
271,759	62,88
272,298	66,8
272,838	64,94
273,377	72,52
273,916	71,21
274,455	62,69
274,994	77,42
275,533	64,64
276,072	69,79
276,61	72,81
277,149	69,17
277,687	76,69
278,225	57,61
278,763	62,98
279,301	62,86
279,839	74,59
280,377	64,9
280,914	70,83
281,452	75,61
281,989	73,55
282,526	58,75
283,064	66,28
283,601	70,83
284,137	64,44
284,674	61,92
285,211	65,94
285,747	76,38
286,284	74,14
286,82	64,52
287,356	59,11
287,892	64,2
288,428	61,8
288,964	70,95
289,5	67,91
290,035	68,46
290,571	64,98
291,106	64,25
291,641	71,62
292,176	58,8
292,711	62,5
293,246	63,98
293,781	66,96
294,315	69,3
294,85	62,95
295,384	66,04
295,918	66
296,453	68,02
296,987	60,59
297,52	61,99
298,054	70,59
298,588	67,2
299,121	62,16
299,655	68,4
300,188	60,59
300,721	70,09
301,254	64,57
301,787	73,25
302,32	70,51
302,853	65,11
303,385	55,69
303,918	71,56
304,45	72,49
304,982	65,2
305,514	63,82
306,046	73,45
306,578	62,24
307,11	70,83
307,641	63,03
308,173	77,83
308,704	78,86
309,236	68,26
309,767	63,33
310,298	68
310,829	61,63
311,359	81,86
311,89	66,54
312,421	61,63
312,951	70,29
313,481	74,41
314,012	67,83
314,542	64,41
315,072	69,1
315,601	61,29
316,131	67,81
316,661	68,73
317,19	55,92
317,72	68,22
318,249	67,43
318,778	79,01
319,307	68,55
319,836	62,4
320,365	70,21
320,893	72,05
321,422	68,16
321,95	71,74
322,479	71,49
323,007	62,95
323,535	72,08
324,063	69,26
324,591	70,11
325,118	62,34
325,646	62,93
326,173	68,75
326,701	62,15
327,228	75,92
327,755	66,67
328,282	69,09
328,809	67,98
329,336	82,13
329,862	69,34
330,389	70,48
330,915	67,05
331,441	71,31
331,968	60,16
332,494	73,33
333,02	67,36
333,545	69,23
334,071	61,76
334,597	74,38
335,122	69,37
335,648	65,6
336,173	68,22
336,698	60,94
337,223	67,14
337,748	70,2
338,272	69,96
338,797	65,74
339,322	64,53
339,846	68,27
340,37	79,04
340,894	68,78
341,419	71,77
341,942	66,28
342,466	63,72
342,99	58,94
343,514	66,4
344,037	59,77
344,56	62,15
345,084	66,95
345,607	61,51
346,13	64,92
346,653	58,3
347,175	71,61
347,698	65,57
348,221	64,37
348,743	69,81
349,265	65,31
349,787	59,93
350,309	60,58
350,831	52,82
351,353	64,9
351,875	61,17
352,397	60,68
352,918	59,36
353,439	62,15
353,961	56,99
354,482	55,37
355,003	60,25
355,524	53,72
356,044	55,64
356,565	58,68
357,086	56,82
357,606	49,67
358,126	58,53
358,646	46,21
359,167	51,5
359,687	53,47
360,206	57,51
360,726	51,42
361,246	56,97
361,765	53,72
362,285	49,33
362,804	43,29
363,323	49,25
363,842	51,16
364,361	52,32
364,88	48,95
365,398	47,13
365,917	44,97
366,435	49,31
366,954	53,19
367,472	44,14
367,99	50,99
368,508	49,09
369,026	51,56
369,544	51,01
370,061	45,58
370,579	47,24
371,096	50,79
371,613	43,16
372,131	47,26
372,648	48,73
373,165	50,66
373,681	43,98
374,198	43,54
374,715	47,94
375,231	44,69
375,747	46,67
376,264	45,39
376,78	44,31
377,296	38,57
377,812	42,14
378,327	42,49
378,843	39,09
379,359	41,41
379,874	39,29
380,389	34,93
380,905	40,13
381,42	34,69
381,935	41,16
382,449	37,11
382,964	35,35
383,479	37,58
383,993	41,2
384,508	33,08
385,022	34,46
385,536	32,9
386,05	34,32
386,564	32,11
387,078	36,13
387,592	35,57
388,105	36,09
388,619	32,79
389,132	30,95
389,645	30,57
390,158	32,44
390,671	30,25
391,184	31,41
391,697	28,17
392,21	29,63
392,722	30,43
393,235	30,49
393,747	29,78
394,259	29,78
394,771	26,25
395,283	27,77
395,795	29,07
396,307	27,55
396,818	27,77
397,33	29,61
397,841	24,41
398,353	27,23
398,864	24,6
399,375	24,66
399,886	24,82
400,397	25,24
400,907	22,46
401,418	23,27
401,928	22,61
402,439	20,69
402,949	21,63
403,459	22
403,969	20,85
404,479	20,57
404,989	19,07
405,498	20,23
406,008	21,59
406,517	18,05
407,027	17,49
407,536	17,68
408,045	16,31
408,554	15,92
409,063	15,83
409,572	14,54
410,08	14,08
410,589	14,18
411,097	12,85
411,606	12,78
412,114	11,07
412,622	11,92
413,13	11,48
413,638	10,83
414,145	11,3
414,653	9,8
415,16	10,83
415,668	10,53
416,175	9,56
416,682	8,14
417,189	8,87
417,696	8,65
418,203	9,5
418,71	8,31
419,216	9,03
419,723	8,42
420,229	8,77
420,735	8,52
421,242	7,93
421,748	7,61
422,254	8,7
422,759	8,1
423,265	7,61
423,771	6,49
424,276	6,81
424,781	6,75
425,287	7,16
425,792	6,4
426,297	6,86
426,802	7,2
427,306	7,57
427,811	6,5
428,316	7,41
428,82	6,47
429,324	6,31
429,829	6,65
430,333	6,07
430,837	6,3
431,34	6,21
431,844	5,89
432,348	6,37
432,851	6,24
433,355	5,44
433,858	6,45
434,361	6,65
434,864	6,19
435,367	6,41
435,87	6,05
436,373	5,88
436,876	6,26
437,378	5,61
437,88	5,82
438,383	6,17
438,885	5,46
439,387	5,82
439,889	5,84
440,391	5,42
440,892	5,91
441,394	5,68
441,896	5,86
442,397	6,06
442,898	6,01
443,399	5,6
443,9	5,81
444,401	5,46
444,902	5,32
445,403	5,88
445,903	5,94
446,404	5,57
446,904	6,05
447,405	5,6
447,905	5,35
448,405	5,48
448,905	5,93
449,404	5,39
449,904	5,54
450,404	5,61
450,903	5,9
451,403	5,17
451,902	5,43
452,401	5,59
452,9	5,76
453,399	5,78
453,898	5,65
454,396	5,63
454,895	5,38
455,393	5,82
455,892	5,84
456,39	4,96
456,888	6,1
457,386	5,47
457,884	5,44
458,382	5,86
458,879	5,85
459,377	5,7
459,874	5,87
460,372	5,75
460,869	5,65
461,366	5,87
461,863	5,64
462,36	5,46
462,857	5,43
463,353	5,78
463,85	5,49
464,346	5,45
464,843	5,45
465,339	5,58
465,835	5,66
466,331	5,38
466,827	5,58
467,323	5,2
467,818	5,71
468,314	5,57
468,809	5,53
469,305	5,42
469,8	5,86
470,295	5,63
470,79	5,43
471,285	5,65
471,78	5,18
472,274	5,33
472,769	5,59
473,263	5,21
473,758	5,48
474,252	5,55
474,746	5,12
475,24	5,99
475,734	5,49
476,228	5,39
476,721	5,35
477,215	5,34
477,708	5,62
478,202	5,54
478,695	5,81
479,188	5,76
479,681	5,48
480,174	5,49
480,667	5,52
481,159	5,6
481,652	5,34
482,144	5,74
482,637	5,29
483,129	5,09
483,621	5,48
484,113	5,29
484,605	5,45
485,097	5,38
485,588	5,85
486,08	5,41
486,571	5,64
487,063	6,03
487,554	5,56
488,045	5,56
488,536	5,59
489,027	5,64
489,518	5,64
490,008	5,41
490,499	6,26
490,989	5,62
491,48	5,9
491,97	6,05
492,46	5,5
492,95	6,12
493,44	6,03
493,93	6,17
494,419	6,32
494,909	6,12
495,398	6,57
495,888	6,36
496,377	6,12
496,866	6,48
497,355	6,6
497,844	6,87
498,333	6,71
498,821	7,22
499,31	7,24
499,798	7,25
500,287	7,4
500,775	7,04
501,263	7,54
501,751	7,91
502,239	7,89
502,727	8,13
503,215	8,31
503,702	8,23
504,19	8,3
504,677	8,76
505,164	8,62
505,651	8,84
506,139	9,14
506,625	9,55
507,112	9,48
507,599	9,83
508,086	10,13
508,572	10,5
509,058	10,53
509,545	10,85
510,031	10,97
510,517	11,04
511,003	11,38
511,489	11,81
511,974	11,78
512,46	12,69
512,946	12,68
513,431	12,63
513,916	13,14
514,401	13,47
514,887	13,6
515,371	13,88
515,856	15,03
516,341	14,69
516,826	14,8
517,31	15,05
517,795	15,85
518,279	15,57
518,763	16,74
519,247	16,56
519,731	17,28
520,215	16,75
520,699	17,55
521,182	18,01
521,666	18,35
522,149	18,81
522,633	19,17
523,116	19,26
523,599	19,66
524,082	19,67
524,565	20,39
525,048	20,71
525,53	21,26
526,013	21,65
526,495	21,28
526,978	21,79
527,46	22,32
527,942	22,54
528,424	22,91
528,906	22,97
529,388	23,18
529,87	23,21
530,351	23
530,833	23,56
531,314	24,09
531,795	23,74
532,277	23,99
532,758	24,37
533,238	24,93
533,719	24,54
534,2	24,79
534,681	25,17
535,161	24,98
535,642	24,96
536,122	25,84
536,602	25,07
537,082	25,4
537,562	25,45
538,042	25,43
538,522	25,65
539,001	25,76
539,481	25,61
539,96	25,83
540,44	25,65
540,919	26,01
541,398	26,29
541,877	25,69
542,356	26,18
542,835	25,84
543,313	25,99
543,792	26,09
544,27	25,97
544,749	26,59
545,227	25,76
545,705	26,14
546,183	26,89
546,661	26,6
547,139	26,31
547,616	26,98
548,094	26,7
548,571	26,57
549,049	26,47
549,526	27,17
550,003	26,82
550,48	27,23
550,957	26,74
551,434	26,74
551,911	26,44
552,387	26,98
552,864	26,68
553,34	26,74
553,817	27,06
554,293	26,84
554,769	26,31
555,245	26,73
555,721	27,08
556,197	26,37
556,672	26,71
557,148	26,83
557,623	26,63
558,099	26,3
558,574	27,04
559,049	26,32
559,524	26,33
559,999	26,11
560,474	26,51
560,948	26,41
561,423	25,44
561,897	26,03
562,372	26,04
562,846	25,6
563,32	25,87
563,794	25,46
564,268	25,6
564,742	25,15
565,216	24,96
565,69	25,44
566,163	24,86
566,636	24,79
567,11	24,95
567,583	24,28
568,056	23,94
568,529	24,05
569,002	23,8
569,475	23,6
569,947	23,19
570,42	23,41
570,892	22,94
571,365	22,94
571,837	23,03
572,309	22,58
572,781	22,65
573,253	22,57
573,725	22,06
574,197	21,76
574,668	21,85
575,14	21,88
575,611	21,19
576,082	21,12
576,554	21,14
577,025	20,67
577,496	21,01
577,967	20,73
578,437	20,86
578,908	20,32
579,379	20,16
579,849	20,07
580,319	19,79
580,79	19,44
581,26	19,53
581,73	19,66
582,2	19,47
582,669	19,2
583,139	19,38
583,609	19,05
584,078	19
584,548	18,96
585,017	18,65
585,486	18,54
585,955	18,58
586,424	18,43
586,893	17,91
587,362	18,26
587,83	18,18
588,299	18,09
588,767	17,92
589,236	18,24
589,704	17,47
590,172	17,68
590,64	17,5
591,108	17,4
591,576	17,43
592,043	17,45
592,511	17,09
592,978	17,59
593,446	17,33
593,913	17,31
594,38	17,26
594,847	17,29
595,314	17
595,781	17,02
596,248	16,99
596,715	17,08
597,181	16,81
597,647	16,69
598,114	16,8
598,58	16,89
599,046	16,95
599,512	16,31
599,978	16,35
600,444	16,83
600,91	16,59
601,375	16,33
601,841	16,34
602,306	16,36
602,771	16,44
603,236	16,07
603,702	16,12
604,167	16,14
604,631	16,05
605,096	15,87
605,561	15,75
606,025	15,94
606,49	15,45
606,954	15,72
607,418	15,56
607,882	15,53
608,347	15,42
608,81	15,33
609,274	15,31
609,738	15,06
610,202	14,84
610,665	14,81
611,128	14,76
611,592	14,96
612,055	14,35
612,518	14,77
612,981	14,23
613,444	14,52
613,907	14,04
614,369	14,02
614,832	13,81
615,294	13,81
615,757	13,63
616,219	13,72
616,681	13,73
617,143	13,73
617,605	13,33
618,067	13,27
618,529	13,4
618,99	13,08
619,452	13,06
619,913	13,13
620,375	13,01
620,836	12,77
621,297	12,99
621,758	12,74
622,219	12,74
622,68	12,56
623,14	12,52
623,601	12,73
624,061	12,8
624,522	12,5
624,982	12,51
625,442	12,46
625,902	12,3
626,362	12,67
626,822	12,51
627,282	12,58
627,742	12,19
628,201	12,14
628,661	12,25
629,12	12,18
629,579	12,25
630,038	12,34
630,497	12,19
630,956	12,33
631,415	12,15
631,874	12,19
632,332	12,02
632,791	12,06
633,249	12,08
633,708	11,83
634,166	11,77
634,624	11,9
635,082	11,9
635,54	11,53
635,998	11,48
636,455	11,7
636,913	11,44
637,37	11,48
637,828	11,24
638,285	11,1
638,742	10,87
639,199	10,87
639,656	10,62
640,113	10,69
640,57	10,56
641,027	10,48
641,483	10,51
641,94	9,92
642,396	9,95
642,852	9,58
643,309	9,62
643,765	9,49
644,221	9,43
644,676	9,42
645,132	9,21
645,588	8,95
646,043	8,9
646,499	8,72
646,954	8,88
647,409	8,34
647,864	8,35
648,319	8,21
648,774	8,1
649,229	8,14
649,684	8,1
650,139	7,8
650,593	7,85
651,047	7,74
651,502	7,83
651,956	7,74
652,41	7,66
652,864	7,65
653,318	7,34
653,772	7,33
654,225	7,53
654,679	7,4
655,133	7,35
655,586	7,24
656,039	7,12
656,492	7,15
656,946	7,18
657,399	6,87
657,851	6,72
658,304	6,78
658,757	6,75
659,209	6,71
659,662	6,44
660,114	6,36
660,567	6,38
661,019	6,18
661,471	6,05
661,923	6,05
662,375	5,99
662,826	5,95
663,278	5,68
663,73	5,67
664,181	5,63
664,632	5,59
665,084	5,45
665,535	5,52
665,986	5,55
666,437	5,22
666,888	5,25
667,338	5,28
667,789	5,12
668,24	5,15
668,69	5,19
669,14	5,1
669,591	5,16
670,041	5,24
670,491	5,05
670,941	5,17
671,391	5,16
671,84	5,34
672,29	5,29
672,74	5,27
673,189	5,36
673,638	5,53
674,088	5,46
674,537	5,63
674,986	5,6
675,435	5,71
675,883	5,84
676,332	5,7
676,781	5,89
677,229	6
677,678	6,12
678,126	6,1
678,574	6,24
679,022	6,33
679,47	6,59
679,918	6,69
680,366	6,71
680,814	6,85
681,261	6,81
681,709	7,11
682,156	7,19
682,604	7,36
683,051	7,49
683,498	7,71
683,945	7,89
684,392	7,95
684,839	8,14
685,286	8,28
685,732	8,44
686,179	8,68
686,625	9,04
687,071	9,04
687,518	9,45
687,964	9,75
688,41	9,92
688,856	10,28
689,301	10,61
689,747	10,99
690,193	11,31
690,638	11,89
691,084	11,98
691,529	12,65
691,974	13,08
692,419	13,71
692,864	14,21
693,309	14,78
693,754	15,06
694,199	15,77
694,643	16,35
695,088	17,09
695,532	17,68
695,977	18,42
696,421	18,8
696,865	19,68
697,309	20,12
697,753	20,78
698,197	21,54
698,64	22,02
699,084	22,7
699,527	23,38
699,971	23,92
700,414	24,63
700,857	24,82
701,3	25,54
701,743	26,12
702,186	26,72
702,629	27,21
703,072	28
703,515	28,21
703,957	28,92
704,399	29,32
704,842	29,82
705,284	29,94
705,726	30,61
706,168	31,47
706,61	31,94
707,052	32,12
707,494	32,63
707,935	33,14
708,377	33,31
708,818	33,96
709,26	34,56
709,701	34,61
710,142	35,22
710,583	35,91
711,024	36,11
711,465	36,45
711,905	37,06
712,346	37,04
712,787	37,74
713,227	37,95
713,667	38,05
714,108	38,71
714,548	39,3
714,988	39,36
715,428	39,73
715,868	40,17
716,307	40,45
716,747	40,7
717,186	41,13
717,626	41,29
718,065	41,76
718,504	41,54
718,944	42,05
719,383	42,32
719,822	42,38
720,261	42,83
720,699	43,29
721,138	43,63
721,576	43,69
722,015	44,09
722,453	44,08
722,892	44,91
723,33	44,69
723,768	44,68
724,206	44,89
724,644	44,96
725,081	45,38
725,519	45,53
725,957	45,54
726,394	46,11
726,832	46,17
727,269	46,5
727,706	46,66
728,143	46,79
728,58	47
729,017	46,9
729,454	46,66
729,89	46,85
730,327	47,48
730,764	47,41
731,2	47,89
731,636	47,06
732,072	47,64
732,509	47,88
732,945	48,46
733,38	48,2
733,816	48,25
734,252	48,55
734,688	47,99
735,123	48,42
735,559	48,38
735,994	48,73
736,429	48,54
736,864	48,32
737,299	48,86
737,734	48,58
738,169	49,13
738,604	48,74
739,038	48,56
739,473	49,41
739,907	49,35
740,342	49,45
740,776	49,11
741,21	49,3
741,644	49,63
742,078	49,07
742,512	49,47
742,946	49,39
743,379	49,25
743,813	49,58
744,246	49,3
744,68	49,58
745,113	49,53
745,546	48,87
745,979	49,37
746,412	49,09
746,845	49,27
747,278	49,52
747,711	49,16
748,143	49,37
748,576	49,15
749,008	49,52
749,441	49,33
749,873	49,3
750,305	49,24
750,737	48,97
751,169	49,05
751,601	49,37
752,032	49,3
752,464	49,28
752,896	48,9
753,327	49,25
753,758	49,11
754,19	48,75
754,621	49,4
755,052	49,09
755,483	48,98
755,914	48,9
756,344	48,76
756,775	48,97
757,206	49,01
757,636	48,85
758,066	48,62
758,497	48,74
758,927	48,97
759,357	48,58
759,787	48,7
760,217	48,65
760,647	48,25
761,076	48,45
761,506	48,23
761,935	48,71
762,365	48,55
762,794	48,43
763,223	48,48
763,653	48,55
764,082	48,55
764,51	48,66
764,939	48,4
765,368	48,35
765,797	48,5
766,225	47,9
766,654	48,24
767,082	48,43
767,51	48,47
767,938	48,06
768,367	48,22
768,795	48,28
769,222	48,21
769,65	48,49
770,078	48,32
770,505	47,92
770,933	48,14
771,36	48,29
771,788	48,14
772,215	47,95
772,642	47,83
773,069	47,49
773,496	48,03
773,923	47,81
774,349	47,42
774,776	48,04
775,203	47,94
775,629	47,91
776,055	48,08
776,482	48,01
776,908	47,89
777,334	47,37
777,76	47,78
778,186	47,67
778,611	48,08
779,037	47,63
779,463	47,91
779,888	47,48
780,314	47,66
780,739	47,5
781,164	47,61
781,589	47,67
782,014	47,22
782,439	47,61
782,864	47,47
783,289	47,78
783,713	47,43
784,138	47,79
784,562	47,86
784,987	47,54
785,411	46,85
785,835	47,49
786,259	47,64
786,683	47,67
787,107	47,49
787,531	47,38
787,954	47,99
788,378	47,69
788,802	47,63
789,225	47,2
789,648	47,45
790,071	47,74
790,495	47,36
790,918	47,62
791,34	47,36
791,763	47,08
792,186	47,11
792,609	47,44
793,031	47,26
793,454	47,17
793,876	47,49
794,298	47,53
794,721	47,62
795,143	47,03
795,565	47,95
795,986	47,33
796,408	47,72
796,83	47,11
797,252	47,38
797,673	47,11
798,094	47,35
798,516	47,66
798,937	47,54
799,358	47,38
799,779	47,14
800,2	47,37
800,621	47,05
801,042	47,77
801,462	47,27
801,883	46,95
802,303	47,21
802,724	47,16
803,144	47,34
803,564	47,27
803,984	47,29
804,404	46,97
804,824	47,57
805,244	47,6
805,664	47,05
806,084	47,15
806,503	47,12
806,923	46,95
807,342	47,47
807,761	47,26
808,18	47,52
808,599	47,19
809,018	47,24
809,437	47,28
809,856	47,26
810,275	47,5
810,693	47,01
811,112	47,37
811,53	47,1
811,949	46,99
812,367	47,27
812,785	47,2
813,203	46,97
813,621	47,49
814,039	47,24
814,457	47,27
814,874	47,01
815,292	47,14
815,709	47,19
816,127	47,32
816,544	46,66
816,961	47,01
817,378	47,11
817,795	46,82
818,212	47,09
818,629	47,18
819,046	46,55
819,462	47,35
819,879	47,12
820,295	47,29
820,712	47,05
821,128	47,11
821,544	46,95
821,96	46,76
822,376	47,53
822,792	47,54
823,208	46,97
823,624	46,68
824,039	47,35
824,455	47,35
824,87	46,71
825,286	47,45
825,701	46,66
826,116	47,16
826,531	47,07
826,946	47,06
827,361	47,04
827,776	46,85
828,19	46,98
828,605	46,64
829,02	46,83
829,434	46,64
829,848	47,23
830,263	47,27
830,677	47,04
831,091	46,83
831,505	47,07
831,919	47,11
832,332	47,06
832,746	47,01
833,16	47,04
833,573	46,91
833,987	47,02
834,4	46,9
834,813	46,64
835,226	46,69
835,639	46,97
836,052	47,22
836,465	46,73
836,878	46,91
837,29	46,51
837,703	47,18
838,116	47,33
838,528	47,22
838,94	46,21
839,352	47,21
839,765	46,96
840,177	46,88
840,589	46,71
841	47,17
841,412	47,15
841,824	47,05
842,235	47,01
842,647	46,61
843,058	46,45
843,47	47
843,881	46,59
844,292	46,62
844,703	46,86
845,114	46,7
845,525	46,61
845,935	46,74
846,346	47,06
846,757	47,17
847,167	46,96
847,577	46,81
847,988	46,79
848,398	46,46
848,808	46,91
849,218	46,82
849,628	47,08
850,038	46,53
850,448	46,68
850,857	46,75
851,267	47,02
851,676	47
852,086	47,18
852,495	46,75
852,904	47,34
853,313	46,82
853,722	46,74
854,131	46,9
854,54	46,89
854,949	46,85
855,357	47,07
855,766	47
856,174	46,62
856,583	46,93
856,991	46,59
857,399	46,83
857,807	47
858,215	46,57
858,623	47,06
859,031	46,93
859,439	46,64
859,846	47,1
860,254	46,93
860,661	47,04
861,069	46,85
861,476	47,14
861,883	47,04
862,29	47,16
862,697	46,42
863,104	47,16
863,511	47,31
863,918	46,7
864,325	46,68
864,731	46,79
865,138	47,15
865,544	47,06
865,95	47,02
866,357	47,22
866,763	46,7
867,169	47,09
867,575	46,95
867,98	46,65
868,386	46,71
868,792	46,83
869,197	47,08
869,603	47,12
870,008	47,04
870,414	46,82
870,819	46,96
871,224	47
871,629	46,89
872,034	46,93
872,439	47,05
872,844	46,67
873,248	46,73
873,653	47,44
874,057	46,53
874,462	46,57
874,866	46,55
875,27	46,98
875,674	47,29
876,078	46,69
876,482	47,28
876,886	46,69
877,29	46,55
877,694	46,77
878,097	46,73
878,501	46,94
878,904	46,46
879,308	46,97
879,711	47,13
880,114	46,99
880,517	46,96
880,92	46,81
881,323	47,32
881,726	46,9
882,128	47
882,531	46,76
882,934	47,12
883,336	46,92
883,738	46,64
884,141	46,53
884,543	46,96
884,945	47,26
885,347	46,79
885,749	46,84
886,151	47,14
886,552	46,8
886,954	46,38
887,355	46,55
887,757	47,07
888,158	47,53
888,56	47,03
888,961	46,81
889,362	47,01
889,763	46,79
890,164	46,7
890,565	46,83
890,965	47,37
891,366	46,79
891,767	46,67
892,167	46,53
892,567	46,88
892,968	47,19
893,368	47,05
893,768	46,49
894,168	46,66
894,568	46,81
894,968	47,11
895,368	46,9
895,767	46,89
896,167	47,19
896,566	47,1
896,966	46,42
897,365	46,74
897,764	47,07
898,164	46,57
898,563	46,97
898,962	46,52
899,361	46,98
899,759	47,12
900,158	47,17
900,557	47,02
900,955	46,58
901,354	46,75
901,752	46,99
902,15	47,34
902,548	47,02
902,947	46,7
903,345	46,82
903,742	46,65
904,14	46,6
904,538	46,94
904,936	47,1
905,333	46,77
905,731	47
906,128	46,5
906,525	47,08
906,923	46,89
907,32	46,33
907,717	46,13
908,114	46,89
908,511	46,85
908,907	46,73
909,304	46,91
909,701	46,77
910,097	46,87
910,494	46,99
910,89	46,65
911,286	47
911,682	46,77
912,078	46,93
912,474	47,22
912,87	46,33
913,266	46,05
913,662	46,87
914,058	46,72
914,453	47,19
914,849	47,05
915,244	47,31
915,639	47,14
916,034	47
916,43	46,68
916,825	46,86
917,22	46,63
917,614	46,61
918,009	46,72
918,404	47,15
918,798	47,24
919,193	46,85
919,587	46,84
919,982	47,39
920,376	46,9
920,77	46,68
921,164	46,57
921,558	47,4
921,952	46,82
922,346	46,45
922,74	46,71
923,133	47,22
923,527	46,69
923,92	46,79
924,314	47,02
924,707	46,59
925,1	46,25
925,493	46,62
925,886	46,95
926,279	46,4
926,672	46,65
927,065	46,66
927,457	46,16
927,85	46,85
928,243	46,64
928,635	46,67
929,027	46,75
929,42	46,69
929,812	46,37
930,204	46,58
930,596	46,91
930,988	47,18
931,379	46,62
931,771	46,94
932,163	46,93
932,554	46,5
932,946	46,79
933,337	46,86
933,729	46,23
934,12	46,38
934,511	45,64
934,902	46,4
935,293	46,93
935,684	47,12
936,075	46,77
936,465	46,26
936,856	46,6
937,246	46,66
937,637	47
938,027	46,35
938,417	47,29
938,808	46,65
939,198	46,94
939,588	47,3
939,978	47,11
940,368	46,76
940,757	46,77
941,147	46,35
941,537	46,87
941,926	47,18
942,315	46,14
942,705	47,01
943,094	47,04
943,483	47,4
943,872	47,08
944,261	45,81
944,65	45,64
945,039	46,59
945,428	46,79
945,816	47,14
946,205	45,53
946,593	47,21
946,982	46,16
947,37	47
947,758	47,45
948,146	45,66
948,534	46,78
948,922	47,07
949,31	46,85
949,698	46,41
950,086	46,3
950,473	46,42
950,861	46,2
951,248	45,85
951,636	45,82
952,023	45,88
952,41	45,33
952,797	46,65
953,184	45,11
953,571	45,44
953,958	45,86
954,345	45,83
954,731	46,44
955,118	45,4
955,505	45,21
955,891	46,02
956,277	45,36
956,664	45,99
957,05	45,47
957,436	44,83
957,822	45,18
958,208	45,9
958,594	45,56
958,979	44,97
959,365	45,65
959,751	45,78
960,136	45,82
960,522	45,77
960,907	45,51
961,292	45,79
961,677	44,71
962,062	45,42
962,447	45,88
962,832	44,97
963,217	45,76
963,602	45,3
963,986	45,3
964,371	45,54
964,756	44,63
965,14	44,49
965,524	45,02
965,908	45,44
966,293	44,83
966,677	44,95
967,061	45,69
967,445	45,43
967,828	45,65
968,212	45,71
968,596	45,96
968,979	45,26
969,363	45,45
969,746	45,14
970,129	45,58
970,513	45,46
970,896	45,58
971,279	45,12
971,662	45,18
972,045	45,31
972,428	45,43
972,81	45,77
973,193	45,32
973,575	45,79
973,958	45,21
974,34	45,77
974,723	45,35
975,105	44,97
975,487	45,41
975,869	45,35
976,251	44,67
976,633	45,57
977,015	45,48
977,396	45,15
977,778	45,62
978,16	45,8
978,541	45,24
978,922	45,21
979,304	45,19
979,685	45,37
980,066	45,48
980,447	45,14
980,828	45,9
981,209	45,4
981,59	46,15
981,97	45
982,351	44,38
982,732	45,6
983,112	45,79
983,493	46,26
983,873	45,79
984,253	46,01
984,633	45,14
985,013	45,33
985,393	45,53
985,773	45,8
986,153	45,5
986,533	45,72
986,912	45,82
987,292	45,8
987,671	45,46
988,051	45,69
988,43	45,32
988,809	45,92
989,188	45,66
989,567	45,26
989,946	46,17
990,325	45,66
990,704	45,6
991,083	45,67
991,461	45,45
991,84	45,1
992,218	45,49
992,597	45,61
992,975	45,9
993,353	45,79
993,732	45,87
994,11	45,64
994,488	45,97
994,866	46,28
995,243	45,49
995,621	45,79
995,999	45,74
996,376	45,82
996,754	45,18
997,131	46,09
997,509	46,66
997,886	45,98
998,263	45,32
998,64	46,03
999,017	45,23
999,394	45,8
999,771	45,62
1000,148	46,25
1000,524	46,45
1000,901	46,31
1001,277	46,53
1001,654	46,04
1002,03	45,66
1002,406	46,85
1002,783	45,42
1003,159	46,13
1003,535	45,61
1003,911	45,76
1004,286	45,82
1004,662	45,75
1005,038	45,75
1005,414	46,45
1005,789	46,09
1006,164	46,7
1006,54	46,92
1006,915	45,55
1007,29	46,33
1007,665	46,22
1008,04	46,54
1008,415	46,57
1008,79	46,56
1009,165	45,12
1009,54	45,76
1009,914	46,17
1010,289	46,27
1010,663	45,6
1011,038	45,75
1011,412	46,25
1011,786	46,9
1012,16	46,83
1012,535	46,64
1012,909	47
1013,282	45,5
1013,656	45,89
1014,03	46,9
1014,404	45,91
1014,777	45,75
1015,151	47,26
1015,524	46,41
1015,897	47,28
1016,271	46,05
1016,644	46,57
1017,017	46,64
1017,39	45,48
1017,763	47,25
1018,136	46,26
1018,508	46,99
1018,881	47,44
1019,254	45,97
1019,626	46,54
1019,999	46,22
1020,371	46,14
1020,743	47,45
1021,116	47,38
1021,488	47,03
1021,86	47
1022,232	46,26
1022,604	47,03
1022,975	47,39
1023,347	46,9
1023,719	47,51
1024,09	47,03
1024,462	47,05
1024,833	46,9
1025,204	47,38
1025,576	46,45
1025,947	46,21
1026,318	47,02
1026,689	45,97
1027,06	47,15
1027,431	46,92
1027,801	47,35
1028,172	47,19
1028,543	46,36
1028,913	46,74
1029,284	47,45
1029,654	47,3
1030,024	47,43
1030,394	47,6
1030,764	45,8
1031,135	47
1031,504	47,63
1031,874	46,88
1032,244	47,14
1032,614	47,37
1032,983	47,18
1033,353	46,82
1033,722	47,18
1034,092	47,84
1034,461	47,08
1034,83	47,57
1035,2	46,78
1035,569	46,83
1035,938	47,16
1036,307	48,47
1036,675	47,12
1037,044	47,95
1037,413	48,17
1037,781	46,87
1038,15	47,57
1038,518	47,89
1038,887	48,09
1039,255	47,27
1039,623	46,17
1039,991	47,42
1040,359	47,92
1040,727	48,6
1041,095	47,16
1041,463	48,75
1041,831	47,22
1042,198	45,59
1042,566	47,07
1042,933	47,04
1043,301	47,57
1043,668	48,2
1044,035	47,6
1044,402	47,71
1044,77	48,24
1045,137	46,79
1045,503	47,47
1045,87	47,86
1046,237	47,37
1046,604	48,16
1046,97	45,91
1047,337	48,15
1047,703	47,79
1048,07	48,3
1048,436	47,25
1048,802	47,63
1049,168	47,22
1049,534	47,93
1049,9	49,22
1050,266	47,93
1050,632	47,97
1050,998	48,58
1051,364	47,75
1051,729	47,48
1052,095	48,8
1052,46	47,15
1052,825	47,08
1053,191	48,22
1053,556	49,38
1053,921	47,46
1054,286	46,92
1054,651	49,08
1055,016	50,11
1055,381	47,52
1055,745	48,94
1056,11	47,67
1056,475	48,58
1056,839	47,79
1057,203	47,92
1057,568	47,52
1057,932	48,45
1058,296	50,12
1058,66	48,65
1059,024	48,74
1059,388	48,01
1059,752	47,39
1060,116	48,8
1060,48	49,03
1060,843	46,68
1061,207	46,75
1061,57	48,36
1061,934	48,48
1062,297	48,74
1062,66	48,45
1063,023	48,85
1063,386	50,61
1063,749	49,82
1064,112	49,29
1064,475	49,31
1064,838	48,59
1065,201	47,27
1065,563	49,07
1065,926	50,16
1066,288	50,56
1066,651	48,14
1067,013	48,22
1067,375	50,02
1067,737	50,03
1068,099	48,14
1068,461	49,19
1068,823	49,6
1069,185	49,54
1069,547	49,83
1069,909	48,45
1070,27	48,6
1070,632	49,97
1070,993	49,32
1071,355	48,53
1071,716	48,91
1072,077	49,34
1072,438	49,71
1072,799	47,88
1073,16	50,44
1073,521	49,83
1073,882	47,76
1074,243	49,23
1074,603	50,69
1074,964	50,24
1075,325	48,78
1075,685	51,1
1076,045	48,15
1076,406	48,77
1076,766	51,09
1077,126	49,08
1077,486	50,97
1077,846	48,58
1078,206	48,77
1078,566	49,42
1078,925	49,02
1079,285	49,52
1079,645	51,1
1080,004	50,77
1080,364	49,4
1080,723	50,53
1081,082	49,63
1081,442	48,48
1081,801	49,02
1082,16	51,2
1082,519	50,07
1082,878	48,9
1083,237	49,73
1083,595	51,17
1083,954	51,63
1084,313	47,91
1084,671	49,45
1085,03	50,25
1085,388	49,74
1085,746	51,9
1086,104	50,99
1086,463	50,37
1086,821	51,8
1087,179	47,27
1087,537	51,99
1087,894	49,7
1088,252	50,44
1088,61	50,84
1088,967	47
1089,325	49,28
1089,682	50,9
1090,04	50,65
1090,397	49,7
1090,754	51,51
1091,111	50
1091,469	49,61
1091,826	49,91
1092,182	49,97
1092,539	49,39
1092,896	51,43
1093,253	50,58
1093,609	51,16
1093,966	51,84
1094,322	53,21
1094,679	50,99
1095,035	50,54
1095,391	52,63
1095,748	52,46
1096,104	50,86
1096,46	54,65
1096,816	47,45
1097,171	52,64
1097,527	52,59
1097,883	50,86
1098,239	52,23
1098,594	51,51
1098,95	50,33
1099,305	51,95
1099,66	53,51
1100,016	51,64
1100,371	52,99
1100,726	50,44
1101,081	51,81
1101,436	52,29
1101,791	54,3
1102,146	53,21
1102,5	51,59
1102,855	53,04
1103,21	51,87
1103,564	51,45
1103,918	52,39
1104,273	52,05
1104,627	56,13
1104,981	57,09
1105,335	52,13
1105,69	50,62
1106,043	53,54
1106,397	52,94
1106,751	53,36
1107,105	53,62
1107,459	51,16
1107,812	52,38
1108,166	52,6
1108,519	56,56
1108,873	55,9
1109,226	54,02
1109,579	56,75
1109,932	51,43
1110,285	53,06
1110,638	53,86
1110,991	53,49
1111,344	56,36
1111,697	53,03
1112,05	54,99
1112,402	58,7
1112,755	56,46
1113,107	56,98
1113,46	57,12
1113,812	57,55
1114,164	58,15
1114,517	56,79
1114,869	87,42
1115,221	91,67
1115,573	75,91
1115,924	74,68
