Data from G_4_Relative__0__00146.txt Node

Date: Tue Jan 30 10:10:29 CET 2024
User: diatiterra
Spectrometer: HDX00911
Trigger mode: 0
Integration Time (sec): 6,000000E-3
Scans to average: 2
Nonlinearity correction enabled: false
Boxcar width: 0
Storing dark spectrum: false
XAxis mode: Wavelengths
Number of Pixels in Spectrum: 2068
>>>>>Begin Spectral Data<<<<<
194,468	84,53
195,025	83,06
195,581	81,06
196,138	71,97
196,694	79,6
197,251	65,64
197,807	66,25
198,363	63,11
198,919	68,09
199,474	67,8
200,03	67,72
200,586	63,88
201,141	64,71
201,696	64,71
202,251	55,22
202,806	61,28
203,361	65,85
203,916	61,41
204,471	65,35
205,025	63,18
205,58	61,29
206,134	64,94
206,688	60,94
207,242	73,87
207,796	64,41
208,35	64,38
208,904	62,1
209,457	68,22
210,011	67,69
210,564	75,68
211,117	68,94
211,67	60,73
212,223	65,74
212,776	72,03
213,329	64,56
213,881	59,74
214,434	62,7
214,986	65,18
215,538	67,72
216,09	69,08
216,642	69,01
217,194	72,25
217,746	67,73
218,297	71,01
218,849	63,12
219,4	67,1
219,951	69,47
220,502	65,37
221,053	71,61
221,604	68,11
222,155	63,14
222,705	62,55
223,256	65,54
223,806	67,5
224,356	71,57
224,906	72,25
225,456	65,55
226,006	64,73
226,556	70,8
227,106	71,78
227,655	69,77
228,204	76,92
228,754	63,29
229,303	73,87
229,852	72,49
230,401	74,44
230,949	63,48
231,498	70,54
232,047	68,85
232,595	63,05
233,143	74,56
233,691	66,08
234,239	64,89
234,787	67,71
235,335	62,77
235,883	63,51
236,43	63,56
236,978	71,74
237,525	69,36
238,072	60,79
238,619	58,74
239,166	65,52
239,713	60,76
240,26	67,74
240,806	65,95
241,353	73,93
241,899	66,26
242,445	61,09
242,991	68,03
243,537	61,04
244,083	64,71
244,629	66,52
245,174	60,85
245,72	69,5
246,265	71,04
246,81	66,22
247,355	61,68
247,9	69,58
248,445	59,52
248,99	60,85
249,534	57,74
250,079	69,91
250,623	67,7
251,168	67,35
251,712	53,28
252,256	59,5
252,8	64,6
253,343	65,59
253,887	67,53
254,43	64,07
254,974	62,8
255,517	65,87
256,06	60,76
256,603	72,43
257,146	58,85
257,689	64,41
258,232	67,42
258,774	66,52
259,317	71,55
259,859	76,19
260,401	71,03
260,943	65,56
261,485	65,45
262,027	60,43
262,569	64,81
263,11	72,12
263,652	68,58
264,193	72,56
264,734	77,78
265,275	67,38
265,816	58,55
266,357	67,22
266,898	71,79
267,438	69,79
267,979	68,1
268,519	75,48
269,059	57,31
269,6	65,93
270,14	59,48
270,68	62,7
271,219	71,3
271,759	62,45
272,298	63,6
272,838	63,35
273,377	76,58
273,916	70,04
274,455	60,38
274,994	67,28
275,533	59,7
276,072	71,49
276,61	74,56
277,149	61,67
277,687	73,73
278,225	62,14
278,763	59,16
279,301	62,45
279,839	64,75
280,377	54,29
280,914	69,44
281,452	68,7
281,989	61,98
282,526	57,92
283,064	63,22
283,601	76,67
284,137	60
284,674	67,36
285,211	67,69
285,747	65,35
286,284	64,22
286,82	58,06
287,356	55,56
287,892	61,32
288,428	59,66
288,964	67,22
289,5	65,12
290,035	66,39
290,571	61,09
291,106	66,06
291,641	66,81
292,176	57,6
292,711	62,93
293,246	55,94
293,781	61,74
294,315	61,86
294,85	57,37
295,384	65,09
295,918	60,8
296,453	67,61
296,987	63,56
297,52	64,71
298,054	72,4
298,588	62
299,121	62,61
299,655	60,85
300,188	62,29
300,721	73,21
301,254	69,96
301,787	62,28
302,32	57,69
302,853	71,06
303,385	63,92
303,918	60,44
304,45	63,32
304,982	66,4
305,514	60,98
306,046	61,06
306,578	59,34
307,11	63,64
307,641	62,61
308,173	68,26
308,704	71,54
309,236	61,74
309,767	62,92
310,298	64
310,829	62,79
311,359	73,89
311,89	61,15
312,421	57,96
312,951	60,25
313,481	63,98
314,012	59,3
314,542	55,86
315,072	58,37
315,601	67,34
316,131	67,81
316,661	62,16
317,19	52,65
317,72	58,47
318,249	71,56
318,778	69,96
319,307	62,1
319,836	64
320,365	69,79
320,893	66,93
321,422	58,74
321,95	63,48
322,479	62,65
323,007	61,75
323,535	61,13
324,063	61,87
324,591	60,15
325,118	52,81
325,646	59,05
326,173	69,2
326,701	59,36
327,228	66,12
327,755	61,43
328,282	65,91
328,809	60,09
329,336	68,09
329,862	63,87
330,389	64,76
330,915	57,75
331,441	73
331,968	54,58
332,494	66,67
333,02	62,76
333,545	62,75
334,071	61,76
334,597	57,02
335,122	63,96
335,648	66
336,173	63,14
336,698	57,08
337,223	62,91
337,748	61,18
338,272	59,23
338,797	66,14
339,322	68,8
339,846	59,44
340,37	72,05
340,894	62,45
341,419	56,85
341,942	58,91
342,466	53,98
342,99	59,32
343,514	61,54
344,037	57,89
344,56	60,16
345,084	62,71
345,607	59,62
346,13	61,29
346,653	53,51
347,175	59,75
347,698	69,96
348,221	64,37
348,743	60
349,265	65,71
349,787	59,58
350,309	55,84
350,831	52,82
351,353	58,78
351,875	56,04
352,397	54,24
352,918	53,39
353,439	55,38
353,961	60,49
354,482	57,38
355,003	53,63
355,524	61,49
356,044	52,36
356,565	58,33
357,086	52,6
357,606	49
358,126	55,85
358,646	46,9
359,167	54,15
359,687	53,47
360,206	56,55
360,726	55,84
361,246	55,73
361,765	49,19
362,285	54,03
362,804	47,87
363,323	56,76
363,842	50,5
364,361	52,94
364,88	57,66
365,398	49,55
365,917	47,34
366,435	49,31
366,954	52,28
367,472	48,95
367,99	48,44
368,508	56,36
369,026	48,44
369,544	53,33
370,061	50,13
370,579	44,2
371,096	48,69
371,613	48,79
372,131	47,26
372,648	48,22
373,165	51,19
373,681	43,19
374,198	49,87
374,715	48,2
375,231	45,43
375,747	47,41
376,264	44,42
376,78	45,02
377,296	42,38
377,812	40,9
378,327	48,12
378,843	42,93
379,359	40,09
379,874	43,66
380,389	41,32
380,905	43,74
381,42	38,16
381,935	46,77
382,449	40,82
382,964	37,81
383,479	36,74
383,993	41,8
384,508	36,92
385,022	40,11
385,536	38,29
386,05	36,55
386,564	36,49
387,078	40,49
387,592	39,34
388,105	38,91
388,619	33,12
389,132	33,44
389,645	32,87
390,158	36,06
390,671	36,86
391,184	34,9
391,697	32,43
392,21	33,69
392,722	32,96
393,235	29,12
393,747	34,55
394,259	29,93
394,771	30,67
395,283	30,44
395,795	31,33
396,307	32,32
396,818	29,73
397,33	29,61
397,841	28,07
398,353	26,97
398,864	28,04
399,375	26,9
399,886	26,16
400,397	25,89
400,907	23,08
401,418	26,99
401,928	24,87
402,439	24,01
402,949	21,83
403,459	24,52
403,969	21,43
404,479	23,6
404,989	21,3
405,498	20,58
406,008	23,75
406,517	19,41
407,027	18,45
407,536	19,69
408,045	17,3
408,554	17,53
409,063	16,11
409,572	15,77
410,08	15,95
410,589	15,13
411,097	16,44
411,606	14,55
412,114	11,98
412,622	12,98
413,13	13,52
413,638	12,43
414,145	12,8
414,653	11,24
415,16	12,19
415,668	11,72
416,175	10,43
416,682	10,54
417,189	10,57
417,696	10,08
418,203	10,66
418,71	9,84
419,216	9,81
419,723	9,89
420,229	8,88
420,735	8,9
421,242	8,78
421,748	9,28
422,254	9,74
422,759	8,5
423,265	8,15
423,771	8,19
424,276	8,24
424,781	8,65
425,287	8,88
425,792	7,75
426,297	7,85
426,802	7,94
427,306	8,19
427,811	7,51
428,316	8,24
428,82	7,19
429,324	7,61
429,829	7,58
430,333	7,66
430,837	6,84
431,34	7,34
431,844	6,98
432,348	7,82
432,851	7,62
433,355	6,5
433,858	7,4
434,361	7,66
434,864	7,16
435,367	7,85
435,87	6,77
436,373	6,55
436,876	7,15
437,378	7,16
437,88	6,98
438,383	7,36
438,885	6,76
439,387	6,52
439,889	6,71
440,391	6,84
440,892	6,58
441,394	7,06
441,896	6,94
442,397	7,53
442,898	6,82
443,399	6,65
443,9	6,66
444,401	6,83
444,902	6,33
445,403	6,99
445,903	7,21
446,404	7,32
446,904	7,16
447,405	6,84
447,905	7,01
448,405	7,03
448,905	7,02
449,404	6,56
449,904	6,8
450,404	6,38
450,903	7,45
451,403	6,87
451,902	7,13
452,401	6,77
452,9	7,16
453,399	7,41
453,898	6,7
454,396	7,42
454,895	7,11
455,393	7,23
455,892	7,25
456,39	6,74
456,888	7,3
457,386	7,14
457,884	7,21
458,382	6,99
458,879	7,47
459,377	7,13
459,874	7,21
460,372	7,39
460,869	6,93
461,366	6,99
461,863	7,65
462,36	7,04
462,857	6,91
463,353	7,2
463,85	6,86
464,346	7,08
464,843	7,15
465,339	7,18
465,835	7,42
466,331	6,7
466,827	6,93
467,323	6,8
467,818	7,1
468,314	7,03
468,809	7,13
469,305	6,87
469,8	7,06
470,295	7
470,79	6,86
471,285	7
471,78	6,62
472,274	7,02
472,769	7,02
473,263	6,63
473,758	7,31
474,252	6,5
474,746	7,01
475,24	6,84
475,734	7,03
476,228	6,4
476,721	6,5
477,215	6,91
477,708	6,79
478,202	6,91
478,695	7,24
479,188	7,35
479,681	7,21
480,174	6,75
480,667	7
481,159	7,24
481,652	7,2
482,144	7,19
482,637	6,7
483,129	7,01
483,621	7,14
484,113	7,41
484,605	7,03
485,097	7,28
485,588	7,26
486,08	7,08
486,571	7,08
487,063	7,46
487,554	7,02
488,045	7,11
488,536	7,31
489,027	7,3
489,518	7,25
490,008	7,39
490,499	7,75
490,989	7,44
491,48	7,52
491,97	7,29
492,46	7,63
492,95	7,69
493,44	7,49
493,93	7,92
494,419	8,03
494,909	7,39
495,398	8,09
495,888	8,1
496,377	8,02
496,866	8,37
497,355	8,31
497,844	8,35
498,333	8,18
498,821	8,98
499,31	9,02
499,798	8,81
500,287	9,06
500,775	9,27
501,263	9,41
501,751	9,13
502,239	9,45
502,727	9,87
503,215	10,18
503,702	9,76
504,19	10,21
504,677	10,38
505,164	10,59
505,651	10,57
506,139	10,83
506,625	10,97
507,112	11,12
507,599	11,32
508,086	11,83
508,572	11,91
509,058	12,01
509,545	12,4
510,031	12,16
510,517	12,95
511,003	12,7
511,489	13,15
511,974	13,39
512,46	14,05
512,946	13,79
513,431	13,69
513,916	14,58
514,401	14,56
514,887	14,63
515,371	15,41
515,856	15,39
516,341	15,7
516,826	16,19
517,31	16,23
517,795	16,7
518,279	16,75
518,763	16,96
519,247	17,27
519,731	17,99
520,215	17,77
520,699	18,18
521,182	18,91
521,666	18,61
522,149	18,93
522,633	19,13
523,116	19,28
523,599	19,78
524,082	19,89
524,565	20,53
525,048	20,41
525,53	20,48
526,013	20,92
526,495	21,52
526,978	21,4
527,46	21,45
527,942	22,06
528,424	22,52
528,906	22,05
529,388	22,05
529,87	22,47
530,351	22,69
530,833	23,17
531,314	23,1
531,795	23,53
532,277	23,16
532,758	23,02
533,238	23,75
533,719	23,65
534,2	23,74
534,681	23,64
535,161	24,35
535,642	23,77
536,122	24,3
536,602	24,12
537,082	23,83
537,562	24,03
538,042	23,83
538,522	24,04
539,001	24,27
539,481	24,37
539,96	24,46
540,44	24,16
540,919	25,15
541,398	24,57
541,877	24,52
542,356	24,72
542,835	24,37
543,313	24,81
543,792	24,99
544,27	25,13
544,749	24,69
545,227	25,1
545,705	24,66
546,183	25,11
546,661	25,05
547,139	24,77
547,616	24,95
548,094	25,14
548,571	24,91
549,049	25,34
549,526	25,59
550,003	25,16
550,48	25,55
550,957	25,18
551,434	24,89
551,911	25,8
552,387	25,22
552,864	24,87
553,34	25,19
553,817	25,29
554,293	25,52
554,769	25,1
555,245	25,23
555,721	24,89
556,197	25,47
556,672	24,94
557,148	25,14
557,623	25,13
558,099	25,08
558,574	24,98
559,049	25,02
559,524	25,43
559,999	24,83
560,474	24,73
560,948	24,72
561,423	24,78
561,897	24,77
562,372	24,72
562,846	24,55
563,32	24,21
563,794	24,32
564,268	24,24
564,742	24,28
565,216	23,81
565,69	23,86
566,163	24,36
566,636	23,54
567,11	24,35
567,583	23,69
568,056	22,91
568,529	23,18
569,002	22,94
569,475	22,99
569,947	22,8
570,42	22,34
570,892	22,83
571,365	22,58
571,837	22,33
572,309	22,13
572,781	22,33
573,253	22,1
573,725	21,68
574,197	21,41
574,668	21,61
575,14	21,41
575,611	21,09
576,082	20,94
576,554	21,21
577,025	20,76
577,496	20,91
577,967	20,67
578,437	20,61
578,908	20,55
579,379	20,03
579,849	19,86
580,319	20,35
580,79	19,78
581,26	19,71
581,73	19,55
582,2	19,4
582,669	19,68
583,139	19,85
583,609	19,46
584,078	19,24
584,548	19,13
585,017	19,11
585,486	18,74
585,955	18,46
586,424	18,99
586,893	18,75
587,362	18,68
587,83	18,27
588,299	18,58
588,767	18,29
589,236	18,58
589,704	18,41
590,172	18,34
590,64	17,95
591,108	17,93
591,576	18,03
592,043	17,61
592,511	17,91
592,978	17,63
593,446	17,71
593,913	17,56
594,38	17,59
594,847	17,83
595,314	17,69
595,781	17,63
596,248	17,62
596,715	17,36
597,181	17,37
597,647	17,25
598,114	17,66
598,58	17,26
599,046	17,01
599,512	17,27
599,978	17,08
600,444	17,42
600,91	17,31
601,375	17,32
601,841	17,04
602,306	17,06
602,771	16,83
603,236	16,91
603,702	16,8
604,167	16,7
604,631	16,64
605,096	16,83
605,561	16,6
606,025	16,29
606,49	16,35
606,954	16,54
607,418	16,61
607,882	16,25
608,347	16,31
608,81	16,32
609,274	15,97
609,738	15,91
610,202	15,82
610,665	15,57
611,128	15,62
611,592	15,76
612,055	15,8
612,518	15,37
612,981	15,65
613,444	15,27
613,907	15,21
614,369	15,02
614,832	15,2
615,294	14,9
615,757	15,14
616,219	14,64
616,681	14,62
617,143	14,65
617,605	14,3
618,067	14,75
618,529	14,42
618,99	14,25
619,452	14,46
619,913	14,32
620,375	14,43
620,836	13,96
621,297	14,12
621,758	13,91
622,219	13,74
622,68	13,8
623,14	13,79
623,601	13,77
624,061	13,79
624,522	13,78
624,982	13,63
625,442	13,61
625,902	13,58
626,362	13,45
626,822	13,72
627,282	13,63
627,742	13,71
628,201	13,63
628,661	13,32
629,12	13,53
629,579	13,43
630,038	13,53
630,497	13,54
630,956	13,35
631,415	13,31
631,874	13,18
632,332	13,26
632,791	13,36
633,249	13,15
633,708	13,32
634,166	12,93
634,624	13
635,082	12,99
635,54	12,88
635,998	12,93
636,455	12,51
636,913	12,65
637,37	12,68
637,828	12,33
638,285	12,23
638,742	12,47
639,199	12,03
639,656	12,03
640,113	11,94
640,57	11,68
641,027	11,62
641,483	11,36
641,94	11,26
642,396	11,32
642,852	10,99
643,309	10,85
643,765	10,93
644,221	10,74
644,676	10,53
645,132	10,43
645,588	10,15
646,043	10,15
646,499	10,04
646,954	10,07
647,409	9,89
647,864	9,62
648,319	9,62
648,774	9,33
649,229	9,37
649,684	9,46
650,139	9,24
650,593	9,12
651,047	9,3
651,502	9,1
651,956	8,92
652,41	9
652,864	8,87
653,318	8,81
653,772	8,73
654,225	8,75
654,679	8,69
655,133	8,69
655,586	8,61
656,039	8,57
656,492	8,47
656,946	8,57
657,399	8,35
657,851	8,21
658,304	8,27
658,757	8,03
659,209	8,17
659,662	7,93
660,114	7,8
660,567	7,71
661,019	7,64
661,471	7,5
661,923	7,4
662,375	7,31
662,826	7,24
663,278	7,12
663,73	7,12
664,181	7,09
664,632	6,96
665,084	6,85
665,535	6,79
665,986	6,83
666,437	6,57
666,888	6,75
667,338	6,6
667,789	6,61
668,24	6,53
668,69	6,55
669,14	6,62
669,591	6,67
670,041	6,44
670,491	6,46
670,941	6,51
671,391	6,53
671,84	6,5
672,29	6,55
672,74	6,48
673,189	6,58
673,638	6,63
674,088	6,76
674,537	6,8
674,986	6,89
675,435	6,82
675,883	6,98
676,332	7,04
676,781	7,07
677,229	7,27
677,678	7,29
678,126	7,31
678,574	7,47
679,022	7,59
679,47	7,91
679,918	8,05
680,366	7,84
680,814	8,14
681,261	8,19
681,709	8,55
682,156	8,43
682,604	8,84
683,051	8,81
683,498	8,88
683,945	9,34
684,392	9,25
684,839	9,47
685,286	9,56
685,732	9,83
686,179	9,94
686,625	10,17
687,071	10,39
687,518	10,62
687,964	10,81
688,41	11,19
688,856	11,59
689,301	11,71
689,747	12,21
690,193	12,59
690,638	13,1
691,084	13,31
691,529	13,8
691,974	14,2
692,419	14,63
692,864	15,03
693,309	15,64
693,754	16,05
694,199	16,48
694,643	16,9
695,088	17,27
695,532	17,89
695,977	18,49
696,421	18,99
696,865	19,19
697,309	19,82
697,753	20,37
698,197	20,93
698,64	21,22
699,084	21,62
699,527	22,09
699,971	22,28
700,414	23
700,857	23,16
701,3	23,27
701,743	23,88
702,186	24,5
702,629	24,62
703,072	25,15
703,515	25,34
703,957	25,71
704,399	25,94
704,842	26,33
705,284	26,47
705,726	27,02
706,168	27,24
706,61	27,64
707,052	27,75
707,494	28,23
707,935	28,47
708,377	28,3
708,818	28,82
709,26	29,47
709,701	29,37
710,142	29,7
710,583	30,07
711,024	30,25
711,465	30,57
711,905	30,47
712,346	30,44
712,787	30,77
713,227	31,14
713,667	31,03
714,108	31,3
714,548	31,71
714,988	31,93
715,428	32,12
715,868	32,1
716,307	32,14
716,747	32,9
717,186	32,88
717,626	32,79
718,065	33,13
718,504	33,14
718,944	33,46
719,383	33,35
719,822	33,82
720,261	33,83
720,699	33,91
721,138	34,24
721,576	33,83
722,015	34,11
722,453	34,59
722,892	34,68
723,33	34,6
723,768	34,65
724,206	35,03
724,644	35,02
725,081	34,87
725,519	34,97
725,957	35,29
726,394	35,03
726,832	35,28
727,269	35,47
727,706	35,5
728,143	35,77
728,58	35,91
729,017	35,89
729,454	35,75
729,89	35,57
730,327	36,04
730,764	35,79
731,2	36,06
731,636	36,3
732,072	36,02
732,509	36,32
732,945	36,5
733,38	36,18
733,816	36,34
734,252	36,48
734,688	36,47
735,123	36,44
735,559	36,36
735,994	36,26
736,429	36,25
736,864	36,69
737,299	36,43
737,734	35,99
738,169	36,66
738,604	36,57
739,038	36,35
739,473	36,57
739,907	36,8
740,342	36,82
740,776	36,75
741,21	36,27
741,644	36,31
742,078	36,42
742,512	36,56
742,946	36,74
743,379	36,65
743,813	36,8
744,246	36,52
744,68	36,45
745,113	36,72
745,546	36,08
745,979	36,25
746,412	36,26
746,845	36,13
747,278	36,43
747,711	36,32
748,143	36,55
748,576	36,06
749,008	36,06
749,441	36,26
749,873	36,16
750,305	36,01
750,737	36,34
751,169	36,2
751,601	36,24
752,032	35,96
752,464	35,76
752,896	35,79
753,327	36,13
753,758	35,92
754,19	35,79
754,621	36,09
755,052	35,52
755,483	35,81
755,914	35,68
756,344	35,63
756,775	35,76
757,206	35,66
757,636	35,53
758,066	35,45
758,497	35,57
758,927	35,56
759,357	35,72
759,787	35,46
760,217	35,39
760,647	35,36
761,076	35,42
761,506	35,54
761,935	35,31
762,365	35,09
762,794	35,42
763,223	34,98
763,653	35,33
764,082	35,4
764,51	35,19
764,939	35,14
765,368	35,16
765,797	35,33
766,225	34,87
766,654	35,04
767,082	35,07
767,51	34,93
767,938	34,75
768,367	35,1
768,795	34,75
769,222	34,98
769,65	35,01
770,078	34,88
770,505	34,71
770,933	34,68
771,36	34,63
771,788	34,69
772,215	34,62
772,642	34,53
773,069	34,59
773,496	34,65
773,923	34,77
774,349	34,7
774,776	34,74
775,203	34,61
775,629	34,59
776,055	34,85
776,482	34,81
776,908	34,55
777,334	34,35
777,76	34,64
778,186	34,46
778,611	34,54
779,037	34,32
779,463	34,48
779,888	34,6
780,314	34,66
780,739	34,19
781,164	34,29
781,589	34,05
782,014	33,94
782,439	34,4
782,864	34,25
783,289	34,25
783,713	34,08
784,138	34,43
784,562	34,32
784,987	34,37
785,411	34,39
785,835	34,18
786,259	34,62
786,683	34,21
787,107	34,27
787,531	34,31
787,954	34,4
788,378	34,52
788,802	34,02
789,225	33,95
789,648	34,21
790,071	34,29
790,495	34,28
790,918	34,32
791,34	34,21
791,763	34,26
792,186	33,88
792,609	34,13
793,031	34,01
793,454	34,1
793,876	34,2
794,298	34,09
794,721	34,26
795,143	34,1
795,565	33,99
795,986	33,56
796,408	34,15
796,83	33,99
797,252	34,17
797,673	34,05
798,094	34,3
798,516	34,06
798,937	34,12
799,358	34,21
799,779	34,34
800,2	34,1
800,621	34,04
801,042	34,07
801,462	33,93
801,883	33,71
802,303	33,92
802,724	34
803,144	34,2
803,564	33,95
803,984	34,21
804,404	34,19
804,824	34,28
805,244	34,04
805,664	33,69
806,084	33,75
806,503	33,65
806,923	33,95
807,342	34,11
807,761	33,95
808,18	33,75
808,599	33,99
809,018	33,94
809,437	33,77
809,856	33,96
810,275	34,21
810,693	33,66
811,112	34,1
811,53	34,05
811,949	33,94
812,367	34,02
812,785	33,83
813,203	33,48
813,621	33,96
814,039	33,69
814,457	33,89
814,874	33,7
815,292	33,55
815,709	33,52
816,127	33,73
816,544	33,61
816,961	34,02
817,378	33,7
817,795	33,46
818,212	33,84
818,629	33,96
819,046	33,58
819,462	33,9
819,879	33,67
820,295	33,73
820,712	33,81
821,128	33,48
821,544	33,75
821,96	33,78
822,376	34,17
822,792	33,75
823,208	33,65
823,624	33,81
824,039	33,59
824,455	33,82
824,87	33,77
825,286	33,83
825,701	33,41
826,116	33,86
826,531	33,94
826,946	33,53
827,361	33,76
827,776	33,56
828,19	33,47
828,605	33,32
829,02	33,52
829,434	33,75
829,848	33,66
830,263	33,91
830,677	33,49
831,091	33,52
831,505	33,77
831,919	33,74
832,332	33,42
832,746	34,04
833,16	33,36
833,573	33,36
833,987	33,44
834,4	33,38
834,813	33,32
835,226	32,91
835,639	33,56
836,052	33,75
836,465	33,76
836,878	33,62
837,29	33,47
837,703	33,27
838,116	33,91
838,528	33,82
838,94	33,13
839,352	33,64
839,765	33,85
840,177	33,55
840,589	33,56
841	33,95
841,412	33,68
841,824	33,67
842,235	33,35
842,647	33,44
843,058	33,71
843,47	33,81
843,881	33,28
844,292	33,44
844,703	33,1
845,114	33,26
845,525	33,55
845,935	33,37
846,346	33,5
846,757	33,23
847,167	33,26
847,577	33,38
847,988	33,61
848,398	33,07
848,808	33,48
849,218	33,47
849,628	33,52
850,038	33,22
850,448	33,36
850,857	33,71
851,267	33,63
851,676	33,41
852,086	33,45
852,495	33,77
852,904	33,55
853,313	33,14
853,722	33,33
854,131	33,55
854,54	33,56
854,949	33,34
855,357	33,52
855,766	33,35
856,174	33,5
856,583	33,59
856,991	33,58
857,399	33,12
857,807	33,39
858,215	33,39
858,623	33,28
859,031	33,35
859,439	33,36
859,846	33,23
860,254	33,53
860,661	33,43
861,069	33,63
861,476	33,45
861,883	33,1
862,29	33,27
862,697	33,26
863,104	33,34
863,511	33,22
863,918	33
864,325	32,93
864,731	33,55
865,138	33,42
865,544	33,67
865,95	33,14
866,357	33,37
866,763	33,49
867,169	33,31
867,575	33,01
867,98	33,2
868,386	33,32
868,792	33,36
869,197	33,3
869,603	33,36
870,008	33,4
870,414	33,57
870,819	33,72
871,224	32,99
871,629	33,3
872,034	33,1
872,439	33,06
872,844	32,98
873,248	33,21
873,653	33,37
874,057	33,3
874,462	33,19
874,866	33,67
875,27	33,47
875,674	33,32
876,078	33,28
876,482	33,2
876,886	33,13
877,29	33,52
877,694	33,29
878,097	33,62
878,501	33,08
878,904	32,89
879,308	32,95
879,711	33,15
880,114	33,16
880,517	33,01
880,92	33,37
881,323	33,25
881,726	33,28
882,128	33,54
882,531	32,95
882,934	33,36
883,336	33,3
883,738	33,02
884,141	33,26
884,543	33,29
884,945	33,41
885,347	33,16
885,749	32,9
886,151	33,26
886,552	32,77
886,954	32,96
887,355	32,76
887,757	32,9
888,158	33,43
888,56	33,3
888,961	33,21
889,362	33,02
889,763	33,19
890,164	32,97
890,565	32,96
890,965	33,37
891,366	32,83
891,767	33,17
892,167	33,2
892,567	33,3
892,968	33,04
893,368	32,98
893,768	33,13
894,168	32,99
894,568	33,13
894,968	33,14
895,368	33,3
895,767	32,72
896,167	33,6
896,566	33,11
896,966	33,38
897,365	32,78
897,764	33,2
898,164	33,08
898,563	33,25
898,962	33,22
899,361	32,96
899,759	33,15
900,158	33,42
900,557	33,09
900,955	33,14
901,354	33,07
901,752	33,04
902,15	33,39
902,548	33,39
902,947	33,43
903,345	32,91
903,742	33,01
904,14	32,8
904,538	33,25
904,936	32,86
905,333	33,15
905,731	32,99
906,128	33,06
906,525	33,01
906,923	33,47
907,32	33,12
907,717	33,31
908,114	33,07
908,511	33,36
908,907	32,98
909,304	33,11
909,701	33,22
910,097	32,94
910,494	33,11
910,89	32,96
911,286	32,9
911,682	33,58
912,078	33,25
912,474	33,57
912,87	32,81
913,266	33,13
913,662	33,11
914,058	33,01
914,453	33,55
914,849	33,15
915,244	33,28
915,639	33,18
916,034	33,22
916,43	32,61
916,825	33,29
917,22	33,04
917,614	33,27
918,009	32,95
918,404	33,27
918,798	32,87
919,193	32,9
919,587	32,95
919,982	33,04
920,376	32,92
920,77	33,34
921,164	32,96
921,558	33,37
921,952	32,95
922,346	33,03
922,74	32,88
923,133	32,89
923,527	33
923,92	33,32
924,314	32,62
924,707	32,94
925,1	33,2
925,493	33,1
925,886	33,32
926,279	32,92
926,672	33,13
927,065	32,85
927,457	33,05
927,85	33,29
928,243	33,61
928,635	32,81
929,027	32,9
929,42	33,04
929,812	32,47
930,204	33,62
930,596	33,09
930,988	33,09
931,379	33,01
931,771	33,27
932,163	32,87
932,554	32,92
932,946	32,86
933,337	32,84
933,729	32,86
934,12	32,85
934,511	32,9
934,902	33,34
935,293	33,04
935,684	32,96
936,075	33,2
936,465	33,21
936,856	33,19
937,246	33,26
937,637	33,16
938,027	33,44
938,417	33,29
938,808	33,3
939,198	33,21
939,588	33,56
939,978	33,79
940,368	33,48
940,757	33,49
941,147	33,07
941,537	33,18
941,926	33,39
942,315	33,76
942,705	33,25
943,094	33,77
943,483	33,99
943,872	33,51
944,261	33,39
944,65	33,17
945,039	33,27
945,428	33,54
945,816	33,48
946,205	33
946,593	33,21
946,982	32,64
947,37	34,52
947,758	33,54
948,146	32,74
948,534	33,18
948,922	34,3
949,31	33
949,698	33,1
950,086	33,56
950,473	33,39
950,861	33,53
951,248	33,13
951,636	33,08
952,023	33,3
952,41	31,9
952,797	32,46
953,184	32,52
953,571	33,65
953,958	31,97
954,345	33,2
954,731	32,42
955,118	32,26
955,505	32,44
955,891	33,26
956,277	32,35
956,664	32,8
957,05	32,14
957,436	32,51
957,822	32,79
958,208	32,34
958,594	32,8
958,979	32,46
959,365	32,64
959,751	32,71
960,136	32,61
960,522	32,66
960,907	31,97
961,292	33,28
961,677	32,33
962,062	32,23
962,447	32,73
962,832	32,1
963,217	32,92
963,602	31,91
963,986	32,78
964,371	32,57
964,756	32
965,14	32,26
965,524	32,47
965,908	32,62
966,293	32,3
966,677	32,2
967,061	32,77
967,445	32,8
967,828	32,29
968,212	32,49
968,596	32,48
968,979	32
969,363	32,6
969,746	32,72
970,129	32,41
970,513	32,56
970,896	32,54
971,279	32,69
971,662	32,08
972,045	31,8
972,428	32,2
972,81	32,62
973,193	32,51
973,575	32,22
973,958	31,38
974,34	32,52
974,723	32,17
975,105	32,67
975,487	32,46
975,869	32,5
976,251	31,77
976,633	32,78
977,015	32,8
977,396	32,46
977,778	32,2
978,16	32,93
978,541	32,18
978,922	32,19
979,304	32,46
979,685	32,16
980,066	32,02
980,447	32,47
980,828	32,4
981,209	32,16
981,59	32,12
981,97	31,66
982,351	32,26
982,732	32,48
983,112	32,2
983,493	32,8
983,873	32,15
984,253	32,64
984,633	32,07
985,013	32,4
985,393	32,73
985,773	32,84
986,153	32,39
986,533	32,1
986,912	32,25
987,292	32,48
987,671	32,14
988,051	32,82
988,43	31,9
988,809	33,48
989,188	32,53
989,567	32,2
989,946	32,26
990,325	32,41
990,704	32,27
991,083	32,38
991,461	32,31
991,84	32,65
992,218	32,6
992,597	32,32
992,975	32,18
993,353	33,02
993,732	32,47
994,11	32,41
994,488	32,9
994,866	33,42
995,243	32,48
995,621	32,18
995,999	32,6
996,376	33,07
996,754	32,24
997,131	32,42
997,509	32,66
997,886	32,99
998,263	32,24
998,64	33,09
999,017	32,32
999,394	32,79
999,771	32,98
1000,148	32,69
1000,524	32,36
1000,901	32,93
1001,277	33,18
1001,654	33,1
1002,03	32,44
1002,406	32,95
1002,783	32,89
1003,159	32,24
1003,535	32,01
1003,911	32,51
1004,286	32,56
1004,662	32,75
1005,038	32,37
1005,414	32,04
1005,789	32,79
1006,164	32,79
1006,54	33,41
1006,915	32,76
1007,29	33,13
1007,665	33,13
1008,04	33,43
1008,415	32,31
1008,79	32,54
1009,165	32,65
1009,54	32,57
1009,914	32,8
1010,289	33,3
1010,663	32,82
1011,038	32,68
1011,412	32,71
1011,786	33,2
1012,16	32,89
1012,535	33,03
1012,909	32,95
1013,282	32,89
1013,656	32,25
1014,03	33,23
1014,404	32,49
1014,777	33,02
1015,151	32,92
1015,524	32,91
1015,897	33,24
1016,271	32,3
1016,644	33,43
1017,017	33,24
1017,39	32,57
1017,763	32,71
1018,136	32,6
1018,508	33,29
1018,881	33,86
1019,254	33,46
1019,626	32,45
1019,999	33,73
1020,371	32,33
1020,743	32,85
1021,116	33,37
1021,488	32,6
1021,86	32,85
1022,232	33
1022,604	33,25
1022,975	32,87
1023,347	33,35
1023,719	33,3
1024,09	32,92
1024,462	32,8
1024,833	33,34
1025,204	33,69
1025,576	32,7
1025,947	32,43
1026,318	32,29
1026,689	32,31
1027,06	34,06
1027,431	33,71
1027,801	33,52
1028,172	33,34
1028,543	32,7
1028,913	32,83
1029,284	33,05
1029,654	33,23
1030,024	33,04
1030,394	34,34
1030,764	32,83
1031,135	33,22
1031,504	33,63
1031,874	33,53
1032,244	33,29
1032,614	33,21
1032,983	33,22
1033,353	32,51
1033,722	32,84
1034,092	33,7
1034,461	33,47
1034,83	33,39
1035,2	33,53
1035,569	33,71
1035,938	33,59
1036,307	34,32
1036,675	34,12
1037,044	34,36
1037,413	33,1
1037,781	33,39
1038,15	33,81
1038,518	33,35
1038,887	34,03
1039,255	32,63
1039,623	33,13
1039,991	33,92
1040,359	34,6
1040,727	33,13
1041,095	33,82
1041,463	34,36
1041,831	33,67
1042,198	33,13
1042,566	32,99
1042,933	33,22
1043,301	33,55
1043,668	34,2
1044,035	33,58
1044,402	35,23
1044,77	33,63
1045,137	34,2
1045,503	34,12
1045,87	33,9
1046,237	34,22
1046,604	34,1
1046,97	33,23
1047,337	33,25
1047,703	34,46
1048,07	33,47
1048,436	34,39
1048,802	33,61
1049,168	33,74
1049,534	34,28
1049,9	34,32
1050,266	33,6
1050,632	34,83
1050,998	33,96
1051,364	33,58
1051,729	35,26
1052,095	33,92
1052,46	33,71
1052,825	34,05
1053,191	32,22
1053,556	35,22
1053,921	34,69
1054,286	34,04
1054,651	34,91
1055,016	34,2
1055,381	33,83
1055,745	35,89
1056,11	35,07
1056,475	34,17
1056,839	35,36
1057,203	34,26
1057,568	33,6
1057,932	34,55
1058,296	35,8
1058,66	34,6
1059,024	34,52
1059,388	33,68
1059,752	34,43
1060,116	34,41
1060,48	35,52
1060,843	34,57
1061,207	34,06
1061,57	34,03
1061,934	34,71
1062,297	34,48
1062,66	36,3
1063,023	34,52
1063,386	36,68
1063,749	35,61
1064,112	35,08
1064,475	35,25
1064,838	35,24
1065,201	34,66
1065,563	35,63
1065,926	36,2
1066,288	35,36
1066,651	35,43
1067,013	34,63
1067,375	35,69
1067,737	36,61
1068,099	35,37
1068,461	34,51
1068,823	35,6
1069,185	35,51
1069,547	35,96
1069,909	35,63
1070,27	34,39
1070,632	34,84
1070,993	35,57
1071,355	35,36
1071,716	35,14
1072,077	36,31
1072,438	35,3
1072,799	35,07
1073,16	34,55
1073,521	36,04
1073,882	33,85
1074,243	35,87
1074,603	35,69
1074,964	35,53
1075,325	36,91
1075,685	37,53
1076,045	33,7
1076,406	34,98
1076,766	36,22
1077,126	35,36
1077,486	36,88
1077,846	36,08
1078,206	35,22
1078,566	35,63
1078,925	37,07
1079,285	34,54
1079,645	36,03
1080,004	35,91
1080,364	35,51
1080,723	38,24
1081,082	37,43
1081,442	36,06
1081,801	34,65
1082,16	35,83
1082,519	37,6
1082,878	35,32
1083,237	37,57
1083,595	38,2
1083,954	36,49
1084,313	37,27
1084,671	36,25
1085,03	35,58
1085,388	37,58
1085,746	39,79
1086,104	36,28
1086,463	35,96
1086,821	38,14
1087,179	37,17
1087,537	37,39
1087,894	36,42
1088,252	37,76
1088,61	38,18
1088,967	35,83
1089,325	36,58
1089,682	38,25
1090,04	36,55
1090,397	37,52
1090,754	36,5
1091,111	36,55
1091,469	36,76
1091,826	38,43
1092,182	36,98
1092,539	39,56
1092,896	38,42
1093,253	36,79
1093,609	38,66
1093,966	37,76
1094,322	37,75
1094,679	38,98
1095,035	37,55
1095,391	38,75
1095,748	38,03
1096,104	40,03
1096,46	36,53
1096,816	38,44
1097,171	40,03
1097,527	37,75
1097,883	39,37
1098,239	38,2
1098,594	39,82
1098,95	37,93
1099,305	39,15
1099,66	37,8
1100,016	38,12
1100,371	39,41
1100,726	39,16
1101,081	40,41
1101,436	39,42
1101,791	37,58
1102,146	40,54
1102,5	37,92
1102,855	41,95
1103,21	39,9
1103,564	37,66
1103,918	41,36
1104,273	39,23
1104,627	42,08
1104,981	42,54
1105,335	41,22
1105,69	39,68
1106,043	41,69
1106,397	40,24
1106,751	42,04
1107,105	39,54
1107,459	38,8
1107,812	41,69
1108,166	42,3
1108,519	42,08
1108,873	41,8
1109,226	40,52
1109,579	41,72
1109,932	41,5
1110,285	42,51
1110,638	39,96
1110,991	41,03
1111,344	43,18
1111,697	42,86
1112,05	41,68
1112,402	48,41
1112,755	42,76
1113,107	47,25
1113,46	42,74
1113,812	41,87
1114,164	44,44
1114,517	45,69
1114,869	82,78
1115,221	81,25
1115,573	92,7
1115,924	76,62
