Data from D_1_0_Relative__2__00075.txt Node

Date: Mon Jan 29 12:56:27 CET 2024
User: diatiterra
Spectrometer: HDX00911
Trigger mode: 0
Integration Time (sec): 6,000000E-3
Scans to average: 4
Nonlinearity correction enabled: false
Boxcar width: 0
Storing dark spectrum: false
XAxis mode: Wavelengths
Number of Pixels in Spectrum: 2068
>>>>>Begin Spectral Data<<<<<
194,468	31,71
195,025	37,19
195,581	38,95
196,138	39,18
196,694	36,59
197,251	37,67
197,807	34,92
198,363	39,31
198,919	35,97
199,474	37,78
200,03	34,22
200,586	33,89
201,141	34,83
201,696	42,58
202,251	32,38
202,806	32,24
203,361	39,24
203,916	41,58
204,471	33,33
205,025	47,31
205,58	38,26
206,134	35,11
206,688	38,83
207,242	37,58
207,796	38,78
208,35	37,81
208,904	47,76
209,457	40
210,011	33,4
210,564	35,14
211,117	38,3
211,67	37,83
212,223	42,4
212,776	38,1
213,329	40
213,881	37,78
214,434	36,61
214,986	39
215,538	37,83
216,09	46,05
216,642	41,97
217,194	36,46
217,746	40,89
218,297	39,91
218,849	37,34
219,4	39,04
219,951	38,22
220,502	38,76
221,053	39,92
221,604	40,21
222,155	34,94
222,705	35,49
223,256	44,9
223,806	38,57
224,356	37,18
224,906	35,22
225,456	37,89
226,006	44,55
226,556	40,29
227,106	41,96
227,655	35,61
228,204	39,16
228,754	39,63
229,303	32,97
229,852	45,57
230,401	39,86
230,949	38,68
231,498	42,22
232,047	38,54
232,595	38,28
233,143	38,77
233,691	35,45
234,239	33,48
234,787	40
235,335	37,42
235,883	42,07
236,43	31,82
236,978	43,29
237,525	37,72
238,072	36,6
238,619	34,81
239,166	38,63
239,713	34,99
240,26	38,59
240,806	44,59
241,353	38,16
241,899	38,11
242,445	35,67
242,991	36,44
243,537	40,98
244,083	37,14
244,629	42,8
245,174	34,72
245,72	38,67
246,265	38,46
246,81	34,99
247,355	41,65
247,9	43,33
248,445	34,97
248,99	36,34
249,534	35,37
250,079	32,67
250,623	41,06
251,168	41,16
251,712	39,57
252,256	36,34
252,8	36,38
253,343	33,65
253,887	40,85
254,43	37,12
254,974	40,94
255,517	35,18
256,06	33,33
256,603	36,14
257,146	31,79
257,689	42,42
258,232	36,73
258,774	40,1
259,317	38,6
259,859	35,99
260,401	41,13
260,943	32,67
261,485	36
262,027	30,42
262,569	35,25
263,11	38,46
263,652	36,71
264,193	40,35
264,734	28,44
265,275	38,03
265,816	34,95
266,357	42,63
266,898	35,84
267,438	44,04
267,979	36,73
268,519	39,61
269,059	38,08
269,6	38,37
270,14	38,51
270,68	39,41
271,219	39,45
271,759	41,35
272,298	34,74
272,838	44,04
273,377	37,04
273,916	34,68
274,455	34,74
274,994	33,92
275,533	33,26
276,072	41,42
276,61	35,68
277,149	36,17
277,687	36,84
278,225	39,82
278,763	41,4
279,301	36,89
279,839	36,77
280,377	34,12
280,914	41,3
281,452	41,28
281,989	39,56
282,526	42,27
283,064	38,51
283,601	32,71
284,137	42,86
284,674	35,19
285,211	37,47
285,747	36,28
286,284	37,21
286,82	36,22
287,356	40,62
287,892	32,65
288,428	33,26
288,964	38,59
289,5	37,08
290,035	38,63
290,571	38,29
291,106	38,37
291,641	35,23
292,176	38,39
292,711	37,28
293,246	42,2
293,781	40,63
294,315	32,67
294,85	33,63
295,384	34,38
295,918	36,44
296,453	38,21
296,987	34,36
297,52	32,46
298,054	34,9
298,588	37,17
299,121	41,91
299,655	35,52
300,188	30,75
300,721	41,4
301,254	40,64
301,787	35,11
302,32	38,48
302,853	37
303,385	33,7
303,918	29,84
304,45	31,8
304,982	37,33
305,514	36,34
306,046	36,32
306,578	35,24
307,11	35,2
307,641	35,04
308,173	36,59
308,704	33,48
309,236	34,55
309,767	34,82
310,298	31,49
310,829	36,62
311,359	36,21
311,89	31,83
312,421	39,91
312,951	36,51
313,481	36,41
314,012	35,79
314,542	33,18
315,072	38,69
315,601	39,41
316,131	33,87
316,661	36,96
317,19	41,4
317,72	35,71
318,249	34,09
318,778	32,6
319,307	33,65
319,836	33,26
320,365	39,63
320,893	39,28
321,422	34,56
321,95	36,22
322,479	32,96
323,007	35,51
323,535	41,63
324,063	36,41
324,591	37,59
325,118	39,78
325,646	34,43
326,173	36,99
326,701	40,48
327,228	36,36
327,755	33,25
328,282	36,36
328,809	35,1
329,336	34,41
329,862	33,64
330,389	36,78
330,915	31,14
331,441	40,33
331,968	33,25
332,494	30,25
333,02	37,42
333,545	32,8
334,071	33,26
334,597	35,1
335,122	34,97
335,648	39,43
336,173	31,24
336,698	30,73
337,223	30,37
337,748	36,97
338,272	30,75
338,797	29,72
339,322	33,71
339,846	33,4
340,37	36,71
340,894	34,52
341,419	39,71
341,942	31,24
342,466	37,16
342,99	39,83
343,514	36,48
344,037	31,4
344,56	28,14
345,084	31,06
345,607	33,75
346,13	30,92
346,653	32,77
347,175	28,8
347,698	36,35
348,221	29,61
348,743	33,64
349,265	36,17
349,787	32,74
350,309	34,53
350,831	32,41
351,353	32,36
351,875	31,21
352,397	36,83
352,918	33,45
353,439	31,99
353,961	34,12
354,482	28,45
355,003	29,13
355,524	30,79
356,044	35,19
356,565	31,91
357,086	28,94
357,606	31,5
358,126	36,2
358,646	31,86
359,167	32,76
359,687	34,75
360,206	33,97
360,726	30,43
361,246	32,06
361,765	28,69
362,285	33,87
362,804	35,45
363,323	32,44
363,842	33,24
364,361	30,48
364,88	31,97
365,398	34,21
365,917	31,03
366,435	30,72
366,954	34,54
367,472	36,97
367,99	33,98
368,508	32,45
369,026	31,7
369,544	31,22
370,061	32,79
370,579	28,99
371,096	33,41
371,613	33,9
372,131	32,39
372,648	29,28
373,165	31,64
373,681	30,6
374,198	31,1
374,715	32,31
375,231	35,6
375,747	26,2
376,264	30,02
376,78	32,55
377,296	31
377,812	31,14
378,327	29,75
378,843	33,36
379,359	30,38
379,874	30,33
380,389	27,88
380,905	30,97
381,42	29,45
381,935	28,35
382,449	33,28
382,964	29,97
383,479	28,75
383,993	27,16
384,508	28,37
385,022	26,75
385,536	25,87
386,05	27,6
386,564	26,71
387,078	24,06
387,592	26,59
388,105	26,3
388,619	24,72
389,132	26,64
389,645	25,68
390,158	25,65
390,671	24,33
391,184	25,14
391,697	23,7
392,21	24,83
392,722	24,6
393,235	24,33
393,747	22,73
394,259	22,63
394,771	23,34
395,283	21,75
395,795	22,86
396,307	22,94
396,818	23,21
397,33	21,79
397,841	24,96
398,353	20,75
398,864	20,79
399,375	20,34
399,886	21,16
400,397	20,68
400,907	21,7
401,418	20,39
401,928	17,71
402,439	20,15
402,949	18,06
403,459	18,29
403,969	18,81
404,479	17,95
404,989	17,24
405,498	16,58
406,008	16,34
406,517	16,08
407,027	15,78
407,536	14,38
408,045	14,47
408,554	14,14
409,063	14,02
409,572	14,3
410,08	13,9
410,589	12,59
411,097	12,52
411,606	11,55
412,114	12,35
412,622	11,93
413,13	10,71
413,638	11,27
414,145	11,56
414,653	11,03
415,16	10,33
415,668	10,27
416,175	10,02
416,682	9,95
417,189	9,48
417,696	9,56
418,203	9,42
418,71	9,32
419,216	8,96
419,723	8,93
420,229	9,1
420,735	8,51
421,242	8,39
421,748	8,26
422,254	8,62
422,759	8,29
423,265	8,2
423,771	8,18
424,276	8,1
424,781	8,13
425,287	7,92
425,792	7,94
426,297	7,96
426,802	8,09
427,306	7,94
427,811	8,01
428,316	7,89
428,82	7,65
429,324	7,56
429,829	8,36
430,333	7,51
430,837	7,66
431,34	7,54
431,844	7,14
432,348	7,3
432,851	7,26
433,355	7,62
433,858	7,79
434,361	7,44
434,864	7,45
435,367	7,55
435,87	7,5
436,373	7,19
436,876	7,56
437,378	7,13
437,88	7,36
438,383	7,41
438,885	7,11
439,387	7,45
439,889	7,66
440,391	7,62
440,892	7,35
441,394	7,38
441,896	7,4
442,397	7,39
442,898	7,72
443,399	7,3
443,9	7,42
444,401	7,33
444,902	7,1
445,403	7,6
445,903	7,32
446,404	7,33
446,904	7,46
447,405	7,23
447,905	7,41
448,405	7,41
448,905	7,57
449,404	7,68
449,904	7,22
450,404	7,17
450,903	7,56
451,403	7,82
451,902	7,68
452,401	7,69
452,9	7,66
453,399	7,49
453,898	7,78
454,396	7,63
454,895	7,78
455,393	7,78
455,892	7,83
456,39	7,89
456,888	7,87
457,386	7,95
457,884	7,85
458,382	7,67
458,879	7,79
459,377	7,66
459,874	7,54
460,372	7,89
460,869	7,86
461,366	7,49
461,863	7,82
462,36	7,95
462,857	7,65
463,353	8,02
463,85	7,53
464,346	7,6
464,843	7,78
465,339	7,56
465,835	8,1
466,331	7,73
466,827	7,62
467,323	8,15
467,818	7,76
468,314	7,85
468,809	7,73
469,305	7,55
469,8	7,8
470,295	7,63
470,79	7,72
471,285	7,71
471,78	7,59
472,274	7,62
472,769	7,71
473,263	7,85
473,758	7,74
474,252	7,95
474,746	7,86
475,24	7,77
475,734	7,76
476,228	7,81
476,721	7,88
477,215	7,77
477,708	7,94
478,202	8,05
478,695	7,95
479,188	8,01
479,681	7,79
480,174	8
480,667	8,21
481,159	7,92
481,652	7,87
482,144	8,09
482,637	8,2
483,129	7,98
483,621	8,07
484,113	8
484,605	8,19
485,097	8,1
485,588	8,15
486,08	7,94
486,571	8,36
487,063	8,08
487,554	8,22
488,045	8,24
488,536	8,15
489,027	8,37
489,518	8,24
490,008	8,19
490,499	8,42
490,989	8,14
491,48	8,4
491,97	8,56
492,46	8,69
492,95	8,7
493,44	8,5
493,93	8,48
494,419	8,66
494,909	8,6
495,398	8,88
495,888	8,98
496,377	8,71
496,866	8,92
497,355	8,97
497,844	9,2
498,333	9,02
498,821	9,5
499,31	9,62
499,798	9,59
500,287	9,45
500,775	9,72
501,263	9,93
501,751	10,07
502,239	9,97
502,727	9,95
503,215	10,15
503,702	10,6
504,19	11,07
504,677	10,76
505,164	11,11
505,651	11,21
506,139	11,34
506,625	11,24
507,112	11,62
507,599	11,58
508,086	11,74
508,572	12,04
509,058	12,18
509,545	12,36
510,031	12,81
510,517	12,98
511,003	13,02
511,489	13,56
511,974	13,59
512,46	14,07
512,946	14,12
513,431	14,51
513,916	14,58
514,401	14,94
514,887	15,38
515,371	15,45
515,856	15,81
516,341	16,18
516,826	16,55
517,31	16,72
517,795	16,97
518,279	17,2
518,763	17,67
519,247	17,89
519,731	18,27
520,215	18,54
520,699	18,94
521,182	19,39
521,666	19,57
522,149	20,07
522,633	20,38
523,116	20,42
523,599	20,57
524,082	21,11
524,565	21,53
525,048	21,84
525,53	21,9
526,013	22,3
526,495	22,57
526,978	22,77
527,46	23
527,942	23,42
528,424	23,3
528,906	23,87
529,388	24,13
529,87	24,04
530,351	24,48
530,833	24,59
531,314	24,83
531,795	24,69
532,277	25,11
532,758	25,33
533,238	25,3
533,719	25,62
534,2	25,71
534,681	25,7
535,161	25,83
535,642	26,01
536,122	26,13
536,602	26,04
537,082	26,2
537,562	26,2
538,042	26,14
538,522	26,49
539,001	26,44
539,481	26,57
539,96	26,67
540,44	26,84
540,919	26,45
541,398	26,76
541,877	26,76
542,356	26,74
542,835	26,93
543,313	27,06
543,792	26,92
544,27	27,02
544,749	27,06
545,227	26,88
545,705	27,04
546,183	27,27
546,661	27,04
547,139	27
547,616	27,39
548,094	27,31
548,571	27,61
549,049	27,38
549,526	27,61
550,003	27,52
550,48	27,51
550,957	27,37
551,434	27,32
551,911	27,38
552,387	27,87
552,864	27,87
553,34	27,36
553,817	27,5
554,293	27,77
554,769	27,82
555,245	27,7
555,721	27,68
556,197	27,62
556,672	27,4
557,148	27,53
557,623	27,35
558,099	27,3
558,574	27,41
559,049	27,43
559,524	27,18
559,999	27,01
560,474	27,36
560,948	26,97
561,423	27,07
561,897	27,11
562,372	27,17
562,846	26,63
563,32	26,64
563,794	26,68
564,268	26,49
564,742	26,22
565,216	26,5
565,69	26,17
566,163	25,74
566,636	25,92
567,11	25,72
567,583	25,51
568,056	25,48
568,529	25,41
569,002	25,19
569,475	25,06
569,947	24,65
570,42	24,38
570,892	24,55
571,365	24,34
571,837	23,92
572,309	23,68
572,781	23,59
573,253	23,25
573,725	23,19
574,197	23,04
574,668	22,77
575,14	22,66
575,611	22,62
576,082	22,36
576,554	22,26
577,025	22,49
577,496	21,71
577,967	21,97
578,437	21,61
578,908	21,55
579,379	21,28
579,849	21,35
580,319	21,15
580,79	21,13
581,26	20,78
581,73	20,76
582,2	20,8
582,669	20,61
583,139	20,55
583,609	20,54
584,078	20,35
584,548	20,14
585,017	20,16
585,486	19,95
585,955	19,95
586,424	19,66
586,893	19,81
587,362	19,7
587,83	19,64
588,299	19,44
588,767	19,38
589,236	19,36
589,704	19,17
590,172	19,14
590,64	19,08
591,108	18,95
591,576	18,87
592,043	18,8
592,511	18,77
592,978	18,71
593,446	18,64
593,913	18,67
594,38	18,55
594,847	18,47
595,314	18,52
595,781	18,43
596,248	18,37
596,715	18,38
597,181	18,3
597,647	18,19
598,114	18,15
598,58	18,23
599,046	18,3
599,512	18,09
599,978	18,15
600,444	18,2
600,91	17,96
601,375	18,14
601,841	17,99
602,306	17,93
602,771	18
603,236	17,87
603,702	17,51
604,167	17,7
604,631	17,72
605,096	17,7
605,561	17,33
606,025	17,35
606,49	17,35
606,954	17,3
607,418	17,25
607,882	17,2
608,347	16,97
608,81	17,09
609,274	16,83
609,738	16,7
610,202	16,7
610,665	16,56
611,128	16,62
611,592	16,52
612,055	16,18
612,518	16,1
612,981	16,09
613,444	16,13
613,907	16,03
614,369	15,82
614,832	15,82
615,294	15,72
615,757	15,64
616,219	15,43
616,681	15,57
617,143	15,17
617,605	15,28
618,067	15,12
618,529	15,08
618,99	15,19
619,452	14,92
619,913	14,83
620,375	14,84
620,836	14,73
621,297	14,79
621,758	14,69
622,219	14,47
622,68	14,6
623,14	14,44
623,601	14,52
624,061	14,36
624,522	14,28
624,982	14,48
625,442	14,36
625,902	14,26
626,362	14,33
626,822	14,13
627,282	14,25
627,742	14,29
628,201	14,2
628,661	14,23
629,12	14,19
629,579	14,07
630,038	13,98
630,497	14,01
630,956	14,02
631,415	13,94
631,874	13,99
632,332	13,87
632,791	13,87
633,249	13,82
633,708	13,83
634,166	13,68
634,624	13,72
635,082	13,49
635,54	13,55
635,998	13,44
636,455	13,36
636,913	13,33
637,37	13,13
637,828	13,15
638,285	13,08
638,742	13,03
639,199	12,76
639,656	12,56
640,113	12,51
640,57	12,48
641,027	12,38
641,483	12,15
641,94	12,19
642,396	12,03
642,852	11,97
643,309	11,76
643,765	11,74
644,221	11,53
644,676	11,49
645,132	11,38
645,588	11,18
646,043	11,14
646,499	10,96
646,954	10,83
647,409	10,72
647,864	10,87
648,319	10,57
648,774	10,48
649,229	10,44
649,684	10,39
650,139	10,32
650,593	10,3
651,047	10,2
651,502	10,11
651,956	10,04
652,41	9,92
652,864	10,03
653,318	10,02
653,772	9,94
654,225	9,82
654,679	9,89
655,133	9,81
655,586	9,62
656,039	9,7
656,492	9,55
656,946	9,63
657,399	9,49
657,851	9,41
658,304	9,29
658,757	9,35
659,209	9,3
659,662	9,06
660,114	9,09
660,567	9,05
661,019	9,05
661,471	8,88
661,923	8,73
662,375	8,76
662,826	8,59
663,278	8,68
663,73	8,58
664,181	8,53
664,632	8,47
665,084	8,41
665,535	8,4
665,986	8,35
666,437	8,36
666,888	8,29
667,338	8,31
667,789	8,36
668,24	8,32
668,69	8,34
669,14	8,23
669,591	8,34
670,041	8,38
670,491	8,44
670,941	8,42
671,391	8,5
671,84	8,55
672,29	8,55
672,74	8,65
673,189	8,75
673,638	8,79
674,088	8,82
674,537	8,92
674,986	8,89
675,435	9,01
675,883	9,09
676,332	9,11
676,781	9,4
677,229	9,43
677,678	9,56
678,126	9,59
678,574	9,67
679,022	9,76
679,47	9,99
679,918	10,05
680,366	10,18
680,814	10,37
681,261	10,36
681,709	10,55
682,156	10,66
682,604	10,85
683,051	10,86
683,498	11,11
683,945	11,17
684,392	11,28
684,839	11,44
685,286	11,63
685,732	11,83
686,179	11,76
686,625	12,03
687,071	12,21
687,518	12,32
687,964	12,39
688,41	12,64
688,856	13,01
689,301	13,19
689,747	13,49
690,193	13,72
690,638	14,05
691,084	14,47
691,529	14,73
691,974	15,21
692,419	15,64
692,864	16,07
693,309	16,58
693,754	16,91
694,199	17,46
694,643	17,89
695,088	18,44
695,532	18,92
695,977	19,52
696,421	20,06
696,865	20,46
697,309	21,13
697,753	21,62
698,197	22,17
698,64	22,74
699,084	23,29
699,527	23,91
699,971	24,27
700,414	24,91
700,857	25,19
701,3	25,74
701,743	26,19
702,186	26,9
702,629	27,26
703,072	27,64
703,515	28,18
703,957	28,69
704,399	29,09
704,842	29,47
705,284	29,64
705,726	30,26
706,168	30,66
706,61	31,02
707,052	31,47
707,494	31,89
707,935	32,16
708,377	32,48
708,818	32,88
709,26	33,19
709,701	33,39
710,142	33,92
710,583	34,48
711,024	34,57
711,465	34,89
711,905	35,38
712,346	35,59
712,787	36,03
713,227	36,2
713,667	36,51
714,108	36,83
714,548	37,27
714,988	37,51
715,428	37,99
715,868	38
716,307	38,07
716,747	38,58
717,186	38,8
717,626	39,04
718,065	39,32
718,504	39,54
718,944	40,05
719,383	40,12
719,822	40,38
720,261	40,38
720,699	40,83
721,138	40,87
721,576	41,28
722,015	41,35
722,453	41,49
722,892	41,74
723,33	41,74
723,768	42,21
724,206	42,28
724,644	42,26
725,081	42,46
725,519	42,65
725,957	42,8
726,394	43,08
726,832	43,26
727,269	43,19
727,706	43,47
728,143	43,62
728,58	43,6
729,017	43,61
729,454	44,06
729,89	43,91
730,327	44,08
730,764	44,2
731,2	44,32
731,636	44,36
732,072	44,38
732,509	44,56
732,945	44,65
733,38	44,62
733,816	44,83
734,252	44,54
734,688	44,72
735,123	44,98
735,559	44,95
735,994	44,81
736,429	45,11
736,864	45,08
737,299	45,16
737,734	45,1
738,169	45,18
738,604	45,16
739,038	45,37
739,473	45,19
739,907	45,4
740,342	45,24
740,776	45,4
741,21	45,36
741,644	45,04
742,078	45,22
742,512	45,44
742,946	45,07
743,379	45,26
743,813	44,97
744,246	45,47
744,68	45,53
745,113	45,22
745,546	45,43
745,979	45,07
746,412	45,49
746,845	45,13
747,278	45,17
747,711	45,01
748,143	45,14
748,576	45,1
749,008	44,98
749,441	44,98
749,873	44,91
750,305	44,91
750,737	44,99
751,169	44,62
751,601	44,89
752,032	44,85
752,464	44,69
752,896	44,86
753,327	44,65
753,758	44,71
754,19	44,6
754,621	44,58
755,052	44,65
755,483	44,42
755,914	44,4
756,344	44,31
756,775	44,32
757,206	44,26
757,636	44,39
758,066	44,29
758,497	44,43
758,927	43,97
759,357	44,27
759,787	44,06
760,217	44,08
760,647	44,01
761,076	44,24
761,506	43,94
761,935	44,03
762,365	43,82
762,794	43,95
763,223	43,93
763,653	43,75
764,082	43,67
764,51	43,56
764,939	43,79
765,368	43,64
765,797	43,65
766,225	43,46
766,654	43,63
767,082	43,5
767,51	43,53
767,938	43,42
768,367	43,51
768,795	43,6
769,222	43,38
769,65	43,44
770,078	43,37
770,505	43,28
770,933	43,42
771,36	43,08
771,788	43,21
772,215	43,42
772,642	43,32
773,069	43,13
773,496	43,27
773,923	43,29
774,349	43,25
774,776	43,26
775,203	43,13
775,629	43,04
776,055	43,15
776,482	43,27
776,908	43,21
777,334	43,06
777,76	42,88
778,186	43,07
778,611	42,82
779,037	43,06
779,463	42,9
779,888	42,87
780,314	43,04
780,739	42,94
781,164	42,8
781,589	42,82
782,014	42,93
782,439	42,72
782,864	42,74
783,289	42,7
783,713	42,92
784,138	42,77
784,562	42,82
784,987	42,79
785,411	42,8
785,835	42,71
786,259	42,59
786,683	42,58
787,107	42,58
787,531	42,7
787,954	43
788,378	42,77
788,802	42,53
789,225	42,54
789,648	42,58
790,071	42,73
790,495	42,45
790,918	42,63
791,34	42,7
791,763	42,45
792,186	42,84
792,609	42,57
793,031	42,34
793,454	42,48
793,876	42,56
794,298	42,27
794,721	42,5
795,143	42,54
795,565	42,51
795,986	42,42
796,408	42,41
796,83	42,43
797,252	42,35
797,673	42,19
798,094	42,32
798,516	42,35
798,937	42,33
799,358	42,35
799,779	42,34
800,2	42,29
800,621	42,31
801,042	42,4
801,462	42,26
801,883	42,35
802,303	42,27
802,724	42,27
803,144	42,2
803,564	42,25
803,984	42,36
804,404	42,21
804,824	42,2
805,244	42,27
805,664	42,4
806,084	42,35
806,503	42,23
806,923	42,29
807,342	42,48
807,761	42,13
808,18	42,29
808,599	42,19
809,018	42,24
809,437	42,18
809,856	42,1
810,275	42,41
810,693	42,16
811,112	42,33
811,53	42,14
811,949	42,33
812,367	42,21
812,785	42,03
813,203	42,03
813,621	42,22
814,039	41,85
814,457	42,06
814,874	42,12
815,292	42,11
815,709	42,14
816,127	42,02
816,544	42,2
816,961	42
817,378	42,21
817,795	41,95
818,212	42,12
818,629	42,05
819,046	42,09
819,462	42,14
819,879	42,07
820,295	42,21
820,712	42,28
821,128	42,04
821,544	41,77
821,96	42,19
822,376	41,92
822,792	42,2
823,208	41,85
823,624	42,13
824,039	42,07
824,455	42,05
824,87	41,86
825,286	42,22
825,701	41,95
826,116	41,95
826,531	41,96
826,946	42,14
827,361	41,88
827,776	41,95
828,19	42,05
828,605	41,83
829,02	42,24
829,434	41,73
829,848	42,04
830,263	41,95
830,677	42,13
831,091	41,96
831,505	41,98
831,919	41,95
832,332	41,89
832,746	41,93
833,16	41,8
833,573	41,78
833,987	41,99
834,4	41,53
834,813	42,06
835,226	41,94
835,639	41,69
836,052	41,69
836,465	41,85
836,878	41,95
837,29	41,87
837,703	41,94
838,116	41,91
838,528	41,73
838,94	41,77
839,352	41,79
839,765	41,84
840,177	41,76
840,589	41,81
841	41,93
841,412	41,83
841,824	41,69
842,235	41,82
842,647	41,59
843,058	41,98
843,47	41,79
843,881	41,78
844,292	41,79
844,703	41,5
845,114	41,9
845,525	41,61
845,935	41,49
846,346	41,61
846,757	41,71
847,167	41,83
847,577	41,81
847,988	41,78
848,398	41,87
848,808	41,65
849,218	41,82
849,628	41,88
850,038	41,67
850,448	41,77
850,857	41,71
851,267	41,62
851,676	41,65
852,086	41,49
852,495	41,72
852,904	41,6
853,313	41,71
853,722	41,63
854,131	41,6
854,54	41,51
854,949	41,75
855,357	41,41
855,766	41,55
856,174	41,34
856,583	41,74
856,991	41,71
857,399	41,7
857,807	41,73
858,215	41,74
858,623	41,47
859,031	41,57
859,439	41,4
859,846	41,56
860,254	41,53
860,661	41,45
861,069	41,66
861,476	41,6
861,883	41,43
862,29	41,73
862,697	41,47
863,104	41,7
863,511	41,31
863,918	41,37
864,325	41,41
864,731	41,52
865,138	41,68
865,544	41,52
865,95	41,58
866,357	41,57
866,763	41,59
867,169	41,45
867,575	41,33
867,98	41,59
868,386	41,56
868,792	41,49
869,197	41,52
869,603	41,2
870,008	41,54
870,414	41,3
870,819	41,5
871,224	41,58
871,629	41,38
872,034	41,45
872,439	41,19
872,844	41,52
873,248	41,54
873,653	41,46
874,057	41,29
874,462	41,38
874,866	41,73
875,27	41,51
875,674	41,34
876,078	41,62
876,482	41,64
876,886	41,5
877,29	41,53
877,694	41,3
878,097	41,4
878,501	41,53
878,904	41,55
879,308	41,38
879,711	41,51
880,114	41,34
880,517	41,36
880,92	41,46
881,323	41,38
881,726	41,41
882,128	41,42
882,531	41,06
882,934	41,36
883,336	41,06
883,738	41,36
884,141	41,28
884,543	41,41
884,945	41,58
885,347	41,37
885,749	41,25
886,151	41,28
886,552	41,27
886,954	41,36
887,355	41,03
887,757	41,49
888,158	40,96
888,56	41,47
888,961	41,24
889,362	41,34
889,763	41,25
890,164	41,7
890,565	41,3
890,965	41,38
891,366	41,15
891,767	41,36
892,167	40,99
892,567	41,23
892,968	41,25
893,368	41,3
893,768	41,3
894,168	41,38
894,568	41,3
894,968	41,36
895,368	41,55
895,767	41,2
896,167	41,06
896,566	41,17
896,966	41,23
897,365	41,33
897,764	41,33
898,164	41,28
898,563	41,17
898,962	41,11
899,361	41,12
899,759	41,04
900,158	41,26
900,557	41,09
900,955	41,25
901,354	41,11
901,752	41,05
902,15	41,15
902,548	41,24
902,947	41,15
903,345	41,19
903,742	41,26
904,14	41,25
904,538	40,9
904,936	41,13
905,333	41,3
905,731	41,33
906,128	41,11
906,525	41,32
906,923	41,03
907,32	41,22
907,717	41,13
908,114	41,2
908,511	41,33
908,907	41,4
909,304	41,41
909,701	40,92
910,097	41,13
910,494	41,31
910,89	41,19
911,286	41,18
911,682	41,18
912,078	41,16
912,474	41,07
912,87	40,9
913,266	41,16
913,662	41,08
914,058	41,19
914,453	41,48
914,849	41,05
915,244	41,08
915,639	41,23
916,034	41,21
916,43	41,04
916,825	41,1
917,22	41,06
917,614	41,03
918,009	41,16
918,404	40,95
918,798	41,45
919,193	41,34
919,587	41,1
919,982	41,23
920,376	41,31
920,77	41,2
921,164	41,14
921,558	41,33
921,952	41,07
922,346	40,88
922,74	41,13
923,133	40,97
923,527	41,2
923,92	41,18
924,314	41,02
924,707	40,78
925,1	40,81
925,493	41,09
925,886	41,17
926,279	40,91
926,672	41,11
927,065	41,1
927,457	41,02
927,85	41,07
928,243	40,8
928,635	40,81
929,027	40,83
929,42	41,04
929,812	40,89
930,204	40,77
930,596	40,83
930,988	40,91
931,379	40,73
931,771	40,98
932,163	40,83
932,554	40,83
932,946	40,9
933,337	40,63
933,729	41,19
934,12	40,82
934,511	40,64
934,902	40,61
935,293	40,83
935,684	40,61
936,075	41,15
936,465	40,79
936,856	40,18
937,246	40,91
937,637	40,67
938,027	40,4
938,417	40,81
938,808	40,7
939,198	40,66
939,588	40,55
939,978	40,8
940,368	40,62
940,757	40,99
941,147	40,98
941,537	40,35
941,926	40,93
942,315	40,98
942,705	41,1
943,094	41,23
943,483	40,9
943,872	40,37
944,261	40,67
944,65	41,15
945,039	40,31
945,428	40,46
945,816	40,74
946,205	40,21
946,593	40,75
946,982	40,26
947,37	40,38
947,758	40,5
948,146	40,36
948,534	40,39
948,922	40,64
949,31	40,13
949,698	40,58
950,086	40,69
950,473	40,37
950,861	39,92
951,248	40,49
951,636	40,07
952,023	39,98
952,41	40,04
952,797	39,92
953,184	40,31
953,571	40,26
953,958	40,31
954,345	40,1
954,731	40,26
955,118	40,37
955,505	39,66
955,891	40,12
956,277	39,89
956,664	39,88
957,05	39,88
957,436	39,93
957,822	39,7
958,208	40
958,594	39,8
958,979	40,33
959,365	39,38
959,751	39,66
960,136	39,79
960,522	39,86
960,907	39,99
961,292	39,13
961,677	40,08
962,062	39,6
962,447	39,78
962,832	40,07
963,217	40,1
963,602	39,93
963,986	39,5
964,371	39,64
964,756	39,91
965,14	39,89
965,524	39,84
965,908	39,66
966,293	39,89
966,677	39,41
967,061	39,78
967,445	39,65
967,828	39,93
968,212	39,81
968,596	40
968,979	39,87
969,363	39,91
969,746	39,88
970,129	39,5
970,513	40,13
970,896	39,68
971,279	39,82
971,662	39,59
972,045	39,43
972,428	39,82
972,81	39,55
973,193	39,54
973,575	39,57
973,958	39,43
974,34	39,96
974,723	39,71
975,105	39,86
975,487	39,73
975,869	39,85
976,251	39,69
976,633	39,82
977,015	39,82
977,396	39,98
977,778	40,02
978,16	39,71
978,541	39,63
978,922	39,85
979,304	39,94
979,685	39,47
980,066	39,52
980,447	39,99
980,828	40,04
981,209	39,69
981,59	39,96
981,97	39,89
982,351	39,65
982,732	39,92
983,112	39,71
983,493	39,89
983,873	39,73
984,253	39,54
984,633	39,56
985,013	39,8
985,393	39,62
985,773	39,72
986,153	39,97
986,533	39,65
986,912	39,96
987,292	39,97
987,671	39,9
988,051	39,85
988,43	39,69
988,809	39,76
989,188	39,69
989,567	39,59
989,946	40,23
990,325	39,85
990,704	39,95
991,083	40,16
991,461	39,25
991,84	39,81
992,218	39,29
992,597	40,01
992,975	39,45
993,353	39,86
993,732	39,78
994,11	39,65
994,488	40,05
994,866	39,81
995,243	39,94
995,621	39,7
995,999	40,18
996,376	39,75
996,754	39,93
997,131	39,66
997,509	39,87
997,886	40,2
998,263	39,64
998,64	40,18
999,017	39,87
999,394	39,91
999,771	39,82
1000,148	39,79
1000,524	39,84
1000,901	39,65
1001,277	39,73
1001,654	40,15
1002,03	40
1002,406	39,73
1002,783	39,83
1003,159	39,88
1003,535	39,89
1003,911	39,69
1004,286	39,57
1004,662	39,8
1005,038	39,92
1005,414	39,96
1005,789	39,56
1006,164	40,3
1006,54	39,85
1006,915	40,07
1007,29	39,62
1007,665	40,23
1008,04	39,58
1008,415	39,99
1008,79	40,4
1009,165	39,64
1009,54	39,62
1009,914	40,04
1010,289	40,17
1010,663	40,08
1011,038	40,26
1011,412	40,41
1011,786	39,88
1012,16	40,06
1012,535	39,94
1012,909	40,23
1013,282	40,31
1013,656	39,8
1014,03	39,82
1014,404	40,07
1014,777	40
1015,151	40,15
1015,524	40,35
1015,897	40,3
1016,271	40,26
1016,644	40,2
1017,017	39,98
1017,39	39,79
1017,763	39,64
1018,136	40,26
1018,508	39,95
1018,881	40,39
1019,254	39,97
1019,626	39,85
1019,999	39,94
1020,371	40,18
1020,743	40,39
1021,116	40,28
1021,488	40
1021,86	39,81
1022,232	39,8
1022,604	40,65
1022,975	40,31
1023,347	40,29
1023,719	40,38
1024,09	39,96
1024,462	40,08
1024,833	40,23
1025,204	39,52
1025,576	40
1025,947	39,95
1026,318	40,39
1026,689	40,32
1027,06	40,2
1027,431	40,37
1027,801	39,26
1028,172	40,28
1028,543	40,43
1028,913	39,99
1029,284	39,89
1029,654	40,62
1030,024	40,11
1030,394	40,8
1030,764	39,9
1031,135	40,22
1031,504	40,04
1031,874	40,03
1032,244	40,13
1032,614	40,41
1032,983	40,52
1033,353	39,99
1033,722	40,56
1034,092	40,1
1034,461	40,24
1034,83	41,04
1035,2	40,6
1035,569	40,71
1035,938	39,85
1036,307	40,28
1036,675	40,41
1037,044	40,13
1037,413	40,57
1037,781	40
1038,15	40,07
1038,518	39,46
1038,887	40,69
1039,255	40,17
1039,623	40,44
1039,991	40,32
1040,359	40,2
1040,727	40,66
1041,095	40,17
1041,463	40,84
1041,831	40,72
1042,198	40,56
1042,566	40,68
1042,933	40,22
1043,301	40,12
1043,668	39,66
1044,035	40,74
1044,402	40,31
1044,77	40,24
1045,137	40,47
1045,503	39,86
1045,87	39,91
1046,237	40,13
1046,604	40,45
1046,97	40,72
1047,337	40,75
1047,703	40,42
1048,07	40,72
1048,436	40,25
1048,802	39,95
1049,168	40,21
1049,534	40,03
1049,9	40,08
1050,266	40,79
1050,632	40,08
1050,998	40,09
1051,364	39,56
1051,729	40,62
1052,095	40,63
1052,46	40,51
1052,825	39,54
1053,191	40,36
1053,556	40,57
1053,921	39,42
1054,286	40,16
1054,651	41,68
1055,016	40,18
1055,381	40,45
1055,745	40,07
1056,11	40,76
1056,475	41,21
1056,839	40,71
1057,203	40,4
1057,568	40,58
1057,932	39,67
1058,296	41,44
1058,66	40,78
1059,024	40,68
1059,388	39,88
1059,752	40,62
1060,116	40,04
1060,48	40,09
1060,843	40,48
1061,207	40,02
1061,57	40,19
1061,934	41,38
1062,297	39,4
1062,66	40,55
1063,023	39,72
1063,386	39,77
1063,749	40,24
1064,112	40,19
1064,475	40,61
1064,838	40,59
1065,201	39,67
1065,563	39,94
1065,926	40,15
1066,288	40,27
1066,651	39,78
1067,013	40,1
1067,375	41,16
1067,737	40,2
1068,099	40,32
1068,461	40,06
1068,823	40,4
1069,185	40,16
1069,547	40,09
1069,909	39,79
1070,27	39,83
1070,632	40,37
1070,993	40,19
1071,355	40,37
1071,716	40,26
1072,077	40,61
1072,438	40,41
1072,799	40,66
1073,16	40,41
1073,521	39,42
1073,882	39,66
1074,243	40,03
1074,603	40,31
1074,964	39,85
1075,325	40,19
1075,685	42,44
1076,045	40
1076,406	40,99
1076,766	40,05
1077,126	40,01
1077,486	39,8
1077,846	40,42
1078,206	40,87
1078,566	40,42
1078,925	41,11
1079,285	40,81
1079,645	40,71
1080,004	40
1080,364	40,55
1080,723	39,57
1081,082	40,1
1081,442	40,41
1081,801	39,3
1082,16	41,29
1082,519	40,64
1082,878	39,62
1083,237	40,15
1083,595	39,87
1083,954	40,31
1084,313	40,11
1084,671	39,75
1085,03	41,05
1085,388	39,04
1085,746	40,45
1086,104	39,77
1086,463	39,77
1086,821	39,39
1087,179	40,47
1087,537	40,84
1087,894	39,25
1088,252	39,98
1088,61	40,61
1088,967	40,76
1089,325	40,17
1089,682	40,91
1090,04	41,59
1090,397	40,03
1090,754	40,04
1091,111	40,53
1091,469	39,76
1091,826	40,93
1092,182	40,72
1092,539	40,96
1092,896	40,66
1093,253	39,6
1093,609	39,61
1093,966	39,26
1094,322	39,42
1094,679	40,8
1095,035	40,42
1095,391	41,24
1095,748	41,05
1096,104	38,69
1096,46	39,95
1096,816	40,7
1097,171	40,51
1097,527	40,56
1097,883	39,17
1098,239	38,53
1098,594	39,29
1098,95	38,8
1099,305	39,55
1099,66	40,12
1100,016	39,86
1100,371	40,11
1100,726	40,04
1101,081	38,95
1101,436	40,95
1101,791	39,92
1102,146	39,73
1102,5	38,6
1102,855	38,63
1103,21	42,01
1103,564	39,73
1103,918	40,18
1104,273	39,62
1104,627	41,17
1104,981	40,42
1105,335	39,72
1105,69	38,67
1106,043	40,07
1106,397	41,72
1106,751	40,11
1107,105	40,88
1107,459	39,53
1107,812	40,57
1108,166	39,29
1108,519	39,25
1108,873	38,39
1109,226	40,98
1109,579	39,9
1109,932	38,37
1110,285	41,53
1110,638	39,92
1110,991	40,19
1111,344	39,75
1111,697	39,57
1112,05	41,18
1112,402	40,02
1112,755	39,82
1113,107	39,57
1113,46	42,69
1113,812	39,44
1114,164	39,99
1114,517	40,85
1114,869	50,56
1115,221	34,38
1115,573	47,94
1115,924	36,62
