Data from E_4_0_Relative__3__00114.txt Node

Date: Mon Jan 29 13:01:26 CET 2024
User: diatiterra
Spectrometer: HDX00911
Trigger mode: 0
Integration Time (sec): 6,000000E-3
Scans to average: 2
Nonlinearity correction enabled: false
Boxcar width: 0
Storing dark spectrum: false
XAxis mode: Wavelengths
Number of Pixels in Spectrum: 2068
>>>>>Begin Spectral Data<<<<<
194,468	9,76
195,025	9,05
195,581	11,05
196,138	-4,09
196,694	21,65
197,251	15,38
197,807	16,15
198,363	13,61
198,919	10,49
199,474	17,78
200,03	9,93
200,586	10,81
201,141	16,24
201,696	12,9
202,251	14,66
202,806	9,86
203,361	14,35
203,916	13,01
204,471	12,02
205,025	17,85
205,58	12,75
206,134	18,69
206,688	4,99
207,242	14,23
207,796	15,51
208,35	19,13
208,904	17,14
209,457	20,86
210,011	19,24
210,564	18,5
211,117	20,7
211,67	13,48
212,223	16,7
212,776	16,73
213,329	19,39
213,881	23,41
214,434	20,23
214,986	14,06
215,538	18,81
216,09	12,19
216,642	22,27
217,194	20
217,746	23,09
218,297	16,31
218,849	12,88
219,4	17,95
219,951	18,67
220,502	16,27
221,053	16,18
221,604	16,04
222,155	14,25
222,705	15,24
223,256	18
223,806	16,14
224,356	17,74
224,906	18,03
225,456	14,11
226,006	17,5
226,556	21,71
227,106	22,77
227,655	19,83
228,204	8,63
228,754	18,69
229,303	20
229,852	22,89
230,401	14,41
230,949	18,68
231,498	17,11
232,047	18,2
232,595	24,9
233,143	18,06
233,691	18,44
234,239	16,07
234,787	19,77
235,335	19,14
235,883	16,28
236,43	13,22
236,978	15,51
237,525	15,85
238,072	18,74
238,619	13,55
239,166	27,15
239,713	16,36
240,26	15,56
240,806	23,59
241,353	10,8
241,899	23,79
242,445	13,4
242,991	12,36
243,537	11,48
244,083	12,03
244,629	21,82
245,174	21,83
245,72	16,89
246,265	11,89
246,81	10,16
247,355	21,65
247,9	15,75
248,445	7,89
248,99	15,2
249,534	12,7
250,079	20
250,623	14,49
251,168	11,86
251,712	9,03
252,256	12,69
252,8	20,04
253,343	8,29
253,887	10,21
254,43	10,94
254,974	12,47
255,517	16,2
256,06	12,58
256,603	4,09
257,146	12,06
257,689	5,41
258,232	12,7
258,774	5,69
259,317	12,64
259,859	9,57
260,401	16,02
260,943	4,22
261,485	12
262,027	10,5
262,569	3,5
263,11	16,03
263,652	10,82
264,193	5,64
264,734	9,17
265,275	7,28
265,816	4,18
266,357	14,51
266,898	9,82
267,438	8,26
267,979	8,85
268,519	10,72
269,059	13,08
269,6	14,67
270,14	14,86
270,68	17,8
271,219	12,24
271,759	10,11
272,298	3,56
272,838	15,14
273,377	8,85
273,916	14,99
274,455	6,9
274,994	6,17
275,533	8,31
276,072	7,08
276,61	12,33
277,149	1,46
277,687	3,66
278,225	9,28
278,763	9,5
279,301	5,56
279,839	8,82
280,377	7,35
280,914	9,74
281,452	10,32
281,989	14,95
282,526	7,08
283,064	18,75
283,601	9,74
284,137	15,24
284,674	12,86
285,211	23,53
285,747	4,3
286,284	2,51
286,82	12,07
287,356	17,44
287,892	4,54
288,428	6,01
288,964	13,18
289,5	5,39
290,035	15,45
290,571	4,15
291,106	7,67
291,641	9,55
292,176	18,58
292,711	13,38
293,246	6,88
293,781	13,54
294,315	11,22
294,85	12,61
295,384	10,34
295,918	12
296,453	5,19
296,987	10,19
297,52	20,39
298,054	7,38
298,588	13,7
299,121	17,29
299,655	11,54
300,188	11,85
300,721	13,26
301,254	9,82
301,787	17,19
302,32	14,29
302,853	16,52
303,385	13,22
303,918	15,59
304,45	6,14
304,982	15,78
305,514	10,88
306,046	16,19
306,578	10,98
307,11	13,29
307,641	10,27
308,173	14,09
308,704	12,95
309,236	14,6
309,767	10,59
310,298	18,18
310,829	12,21
311,359	19,39
311,89	16,03
312,421	11,43
312,951	26,51
313,481	17,51
314,012	12,08
314,542	8,94
315,072	10,8
315,601	13,51
316,131	9,61
316,661	6,52
317,19	7,92
317,72	4,29
318,249	14
318,778	13,24
319,307	14,12
319,836	11,32
320,365	10,14
320,893	13,44
321,422	16,36
321,95	13,56
322,479	16,7
323,007	7,73
323,535	15,12
324,063	15,13
324,591	13,24
325,118	20,22
325,646	14,15
326,173	10,73
326,701	22,62
327,228	22,73
327,755	18,42
328,282	12,3
328,809	24,94
329,336	8,08
329,862	18,41
330,389	14,48
330,915	10,91
331,441	18,65
331,968	10,36
332,494	6,5
333,02	14,84
333,545	18,71
334,071	13,17
334,597	12,5
335,122	12,92
335,648	21,91
336,173	14,53
336,698	16,06
337,223	6,94
337,748	20,59
338,272	13,18
338,797	12,58
339,322	15,61
339,846	15,53
340,37	19,24
340,894	14,03
341,419	15,34
341,942	16,63
342,466	17,95
342,99	21,99
343,514	14,26
344,037	16,4
344,56	16,4
345,084	14,77
345,607	14,08
346,13	11,45
346,653	10,8
347,175	13,44
347,698	16,31
348,221	18,06
348,743	15,24
349,265	13,74
349,787	12,1
350,309	14,87
350,831	17,41
351,353	22,2
351,875	14,09
352,397	13,67
352,918	20,48
353,439	16,96
353,961	12,27
354,482	6,73
355,003	13,42
355,524	16,01
356,044	16,24
356,565	17,33
357,086	12,44
357,606	14,54
358,126	13,2
358,646	15,11
359,167	12,41
359,687	10,38
360,206	11,82
360,726	13,62
361,246	12,79
361,765	7,03
362,285	8,39
362,804	11,64
363,323	10,53
363,842	13,35
364,361	14,71
364,88	9,61
365,398	12,24
365,917	13,04
366,435	9,13
366,954	10,97
367,472	11,94
367,99	13,62
368,508	7,02
369,026	12,48
369,544	10,49
370,061	10,74
370,579	13,36
371,096	8,32
371,613	13,65
372,131	9,2
372,648	7,21
373,165	6,75
373,681	7,32
374,198	9,89
374,715	12,86
375,231	11,62
375,747	4,51
376,264	8,98
376,78	8,97
377,296	6,26
377,812	12,38
378,327	8,9
378,843	10,1
379,359	9,4
379,874	11,18
380,389	8,86
380,905	9,34
381,42	10,32
381,935	10,26
382,449	10,26
382,964	8,23
383,479	9,63
383,993	9,26
384,508	8,78
385,022	9,7
385,536	7,41
386,05	7,4
386,564	8,14
387,078	8,75
387,592	7,6
388,105	8,54
388,619	6,54
389,132	8,09
389,645	6,67
390,158	8,67
390,671	7,26
391,184	8,25
391,697	8,23
392,21	7,87
392,722	8,24
393,235	5,66
393,747	4,13
394,259	6,28
394,771	7,87
395,283	6,75
395,795	6,4
396,307	7,68
396,818	6,43
397,33	6,94
397,841	6,69
398,353	5,8
398,864	6,46
399,375	6,22
399,886	7,09
400,397	6,21
400,907	6,72
401,418	4,85
401,928	5,71
402,439	5,07
402,949	5,99
403,459	5,37
403,969	5,6
404,479	7,22
404,989	4,56
405,498	5,54
406,008	5,56
406,517	4,42
407,027	4,52
407,536	4,67
408,045	4,42
408,554	3,84
409,063	3,2
409,572	4,28
410,08	4,34
410,589	3,58
411,097	4,02
411,606	4,08
412,114	2,91
412,622	3,86
413,13	3,13
413,638	3,47
414,145	3,42
414,653	2,42
415,16	3,32
415,668	2,8
416,175	2,81
416,682	2,92
417,189	2,88
417,696	3,11
418,203	2,84
418,71	2,98
419,216	2,92
419,723	2,66
420,229	2,81
420,735	2,83
421,242	2,59
421,748	2,52
422,254	2,54
422,759	2,63
423,265	2,68
423,771	2,73
424,276	2,63
424,781	2,58
425,287	2,31
425,792	2,06
426,297	2,12
426,802	2,19
427,306	2,46
427,811	2,52
428,316	2,59
428,82	2,37
429,324	2,4
429,829	2,72
430,333	2,27
430,837	2,44
431,34	2,6
431,844	1,84
432,348	2,19
432,851	2,39
433,355	2,17
433,858	2,4
434,361	2,2
434,864	2,31
435,367	2,08
435,87	2,2
436,373	2,47
436,876	2,56
437,378	2,13
437,88	2,38
438,383	2,36
438,885	2,23
439,387	2,13
439,889	2,17
440,391	2,04
440,892	2,32
441,394	2,22
441,896	2,1
442,397	2,1
442,898	2
443,399	2,2
443,9	1,88
444,401	2,3
444,902	2,45
445,403	2,33
445,903	1,94
446,404	2,22
446,904	2,17
447,405	2,26
447,905	2,34
448,405	2,27
448,905	2,1
449,404	2,01
449,904	2,09
450,404	2,04
450,903	1,93
451,403	2,06
451,902	2,3
452,401	2,26
452,9	2,05
453,399	2,26
453,898	2,12
454,396	2,05
454,895	2,36
455,393	2,27
455,892	2,16
456,39	2,34
456,888	2,4
457,386	2,15
457,884	2,21
458,382	2,1
458,879	2,3
459,377	2,19
459,874	2,14
460,372	2,31
460,869	2,24
461,366	2,29
461,863	2,17
462,36	2,2
462,857	2,2
463,353	2,28
463,85	2,24
464,346	2,15
464,843	2,09
465,339	2,15
465,835	2,12
466,331	2,29
466,827	2,17
467,323	2,41
467,818	2,14
468,314	2,07
468,809	2,27
469,305	2,01
469,8	2,32
470,295	2,2
470,79	2,08
471,285	1,99
471,78	2,19
472,274	2,29
472,769	2,11
473,263	2,31
473,758	2,29
474,252	2,15
474,746	1,97
475,24	1,91
475,734	2,06
476,228	2,15
476,721	1,93
477,215	2,05
477,708	2,24
478,202	2,29
478,695	2,17
479,188	2,09
479,681	2,03
480,174	2,24
480,667	2,25
481,159	1,97
481,652	2,21
482,144	2,28
482,637	2,28
483,129	2,2
483,621	2,26
484,113	2,16
484,605	2,29
485,097	2,28
485,588	2,36
486,08	2,29
486,571	2,12
487,063	2,21
487,554	2,19
488,045	2,14
488,536	2,14
489,027	2,39
489,518	2,19
490,008	2,19
490,499	2,4
490,989	2,29
491,48	2,37
491,97	2,44
492,46	2,29
492,95	2,33
493,44	2,42
493,93	2,3
494,419	2,26
494,909	2,43
495,398	2,26
495,888	2,38
496,377	2,31
496,866	2,42
497,355	2,36
497,844	2,49
498,333	2,57
498,821	2,41
499,31	2,65
499,798	2,41
500,287	2,58
500,775	2,83
501,263	2,6
501,751	2,73
502,239	2,77
502,727	2,58
503,215	2,89
503,702	2,81
504,19	3,09
504,677	2,84
505,164	2,9
505,651	2,92
506,139	2,99
506,625	3,03
507,112	3,12
507,599	3,08
508,086	3,32
508,572	3,08
509,058	3,33
509,545	3,36
510,031	3,44
510,517	3,52
511,003	3,5
511,489	3,58
511,974	3,85
512,46	3,75
512,946	3,91
513,431	3,94
513,916	4,31
514,401	4,15
514,887	4,21
515,371	4,42
515,856	4,33
516,341	4,59
516,826	4,78
517,31	4,84
517,795	5,01
518,279	4,81
518,763	5,14
519,247	5,16
519,731	5,11
520,215	5,36
520,699	5,81
521,182	5,58
521,666	5,62
522,149	5,85
522,633	6,15
523,116	6,09
523,599	6,07
524,082	6,47
524,565	6,31
525,048	6,55
525,53	6,55
526,013	6,7
526,495	6,8
526,978	6,99
527,46	7,07
527,942	7,08
528,424	7,36
528,906	7,29
529,388	7,54
529,87	7,52
530,351	7,59
530,833	7,69
531,314	7,48
531,795	7,62
532,277	7,57
532,758	7,79
533,238	7,87
533,719	7,65
534,2	8,08
534,681	7,95
535,161	8,09
535,642	7,99
536,122	8,09
536,602	8,3
537,082	8,12
537,562	8,28
538,042	8,01
538,522	8,19
539,001	8,23
539,481	8,25
539,96	8,43
540,44	8,64
540,919	8,36
541,398	8,54
541,877	8,44
542,356	8,5
542,835	8,45
543,313	8,59
543,792	8,69
544,27	8,68
544,749	8,38
545,227	8,36
545,705	8,63
546,183	8,57
546,661	8,72
547,139	8,81
547,616	8,82
548,094	8,57
548,571	8,76
549,049	8,7
549,526	8,76
550,003	8,77
550,48	8,74
550,957	8,95
551,434	8,78
551,911	8,64
552,387	8,85
552,864	8,61
553,34	8,44
553,817	8,69
554,293	8,96
554,769	8,8
555,245	8,92
555,721	8,54
556,197	8,94
556,672	8,7
557,148	8,81
557,623	8,53
558,099	8,64
558,574	8,55
559,049	8,8
559,524	8,64
559,999	8,38
560,474	8,48
560,948	8,6
561,423	8,48
561,897	8,59
562,372	8,57
562,846	8,35
563,32	8,38
563,794	8,19
564,268	8,21
564,742	8,15
565,216	8,21
565,69	8,33
566,163	8,03
566,636	8,12
567,11	8
567,583	7,89
568,056	7,98
568,529	7,86
569,002	7,75
569,475	7,83
569,947	7,65
570,42	7,5
570,892	7,52
571,365	7,39
571,837	7,32
572,309	7,46
572,781	7,09
573,253	6,98
573,725	7,25
574,197	7,17
574,668	7,03
575,14	6,8
575,611	6,81
576,082	6,74
576,554	6,91
577,025	6,57
577,496	6,5
577,967	6,44
578,437	6,63
578,908	6,37
579,379	6,41
579,849	6,38
580,319	6,31
580,79	6,36
581,26	6,2
581,73	6,27
582,2	6,21
582,669	6,07
583,139	6,02
583,609	5,94
584,078	6,03
584,548	5,84
585,017	5,89
585,486	6,02
585,955	5,91
586,424	5,82
586,893	5,82
587,362	5,71
587,83	5,83
588,299	5,74
588,767	5,81
589,236	5,66
589,704	5,61
590,172	5,51
590,64	5,41
591,108	5,45
591,576	5,6
592,043	5,54
592,511	5,48
592,978	5,47
593,446	5,32
593,913	5,52
594,38	5,3
594,847	5,35
595,314	5,32
595,781	5,41
596,248	5,47
596,715	5,35
597,181	5,34
597,647	5,24
598,114	5,46
598,58	5,21
599,046	5,23
599,512	5,22
599,978	5,32
600,444	5,17
600,91	5,13
601,375	5,35
601,841	5,27
602,306	5,26
602,771	5,26
603,236	5,17
603,702	5,06
604,167	5,13
604,631	5,07
605,096	5,01
605,561	4,94
606,025	5,07
606,49	4,98
606,954	4,97
607,418	4,98
607,882	4,9
608,347	4,83
608,81	4,86
609,274	4,81
609,738	4,7
610,202	4,79
610,665	4,6
611,128	4,71
611,592	4,57
612,055	4,61
612,518	4,61
612,981	4,42
613,444	4,42
613,907	4,48
614,369	4,33
614,832	4,29
615,294	4,36
615,757	4,33
616,219	4,31
616,681	4,28
617,143	4,29
617,605	4,13
618,067	4,26
618,529	4,15
618,99	4,17
619,452	4,03
619,913	4,06
620,375	3,97
620,836	4,05
621,297	3,97
621,758	3,94
622,219	3,99
622,68	4,02
623,14	4,06
623,601	4,03
624,061	3,93
624,522	3,94
624,982	3,93
625,442	3,99
625,902	3,95
626,362	3,9
626,822	3,9
627,282	3,81
627,742	3,83
628,201	3,84
628,661	3,88
629,12	3,81
629,579	3,88
630,038	3,89
630,497	3,91
630,956	3,86
631,415	3,82
631,874	3,83
632,332	3,72
632,791	3,79
633,249	3,82
633,708	3,74
634,166	3,77
634,624	3,74
635,082	3,71
635,54	3,64
635,998	3,69
636,455	3,62
636,913	3,68
637,37	3,67
637,828	3,61
638,285	3,59
638,742	3,4
639,199	3,49
639,656	3,39
640,113	3,41
640,57	3,4
641,027	3,31
641,483	3,22
641,94	3,38
642,396	3,24
642,852	3,34
643,309	3,19
643,765	3,12
644,221	3,15
644,676	3,11
645,132	3,03
645,588	2,97
646,043	3,05
646,499	3,02
646,954	2,95
647,409	2,88
647,864	2,82
648,319	2,82
648,774	2,81
649,229	2,79
649,684	2,8
650,139	2,73
650,593	2,75
651,047	2,74
651,502	2,78
651,956	2,65
652,41	2,63
652,864	2,66
653,318	2,61
653,772	2,63
654,225	2,61
654,679	2,57
655,133	2,63
655,586	2,63
656,039	2,5
656,492	2,56
656,946	2,52
657,399	2,43
657,851	2,52
658,304	2,49
658,757	2,4
659,209	2,44
659,662	2,4
660,114	2,41
660,567	2,36
661,019	2,39
661,471	2,31
661,923	2,31
662,375	2,31
662,826	2,32
663,278	2,26
663,73	2,27
664,181	2,28
664,632	2,25
665,084	2,21
665,535	2,22
665,986	2,27
666,437	2,23
666,888	2,26
667,338	2,26
667,789	2,25
668,24	2,29
668,69	2,28
669,14	2,41
669,591	2,39
670,041	2,34
670,491	2,33
670,941	2,37
671,391	2,38
671,84	2,49
672,29	2,31
672,74	2,54
673,189	2,49
673,638	2,55
674,088	2,51
674,537	2,61
674,986	2,55
675,435	2,58
675,883	2,57
676,332	2,77
676,781	2,73
677,229	2,75
677,678	2,81
678,126	2,98
678,574	2,98
679,022	2,98
679,47	3,07
679,918	3,17
680,366	3,1
680,814	3,13
681,261	3,19
681,709	3,24
682,156	3,31
682,604	3,28
683,051	3,34
683,498	3,32
683,945	3,45
684,392	3,46
684,839	3,56
685,286	3,53
685,732	3,55
686,179	3,62
686,625	3,61
687,071	3,68
687,518	3,75
687,964	3,65
688,41	3,75
688,856	3,78
689,301	3,87
689,747	3,96
690,193	4,05
690,638	4,07
691,084	4,2
691,529	4,28
691,974	4,42
692,419	4,54
692,864	4,69
693,309	4,83
693,754	4,94
694,199	5,27
694,643	5,31
695,088	5,56
695,532	5,67
695,977	5,91
696,421	6,05
696,865	6,2
697,309	6,5
697,753	6,66
698,197	6,78
698,64	6,98
699,084	7,27
699,527	7,49
699,971	7,6
700,414	7,91
700,857	7,99
701,3	8,18
701,743	8,51
702,186	8,54
702,629	8,86
703,072	8,94
703,515	9,31
703,957	9,42
704,399	9,55
704,842	9,54
705,284	9,83
705,726	9,99
706,168	10,25
706,61	10,36
707,052	10,53
707,494	10,64
707,935	10,78
708,377	11,06
708,818	11,26
709,26	11,28
709,701	11,49
710,142	11,63
710,583	11,72
711,024	12,01
711,465	12,05
711,905	12,2
712,346	12,44
712,787	12,44
713,227	12,59
713,667	12,79
714,108	12,9
714,548	13,03
714,988	13,16
715,428	13,36
715,868	13,41
716,307	13,54
716,747	13,74
717,186	13,76
717,626	13,85
718,065	14,02
718,504	14,26
718,944	14,15
719,383	14,26
719,822	14,51
720,261	14,51
720,699	14,58
721,138	14,94
721,576	14,84
722,015	14,98
722,453	15,09
722,892	15,09
723,33	15,1
723,768	15,43
724,206	15,42
724,644	15,58
725,081	15,53
725,519	15,48
725,957	15,65
726,394	15,66
726,832	15,85
727,269	15,9
727,706	15,95
728,143	15,84
728,58	15,93
729,017	15,98
729,454	16,13
729,89	16,29
730,327	16,2
730,764	16,23
731,2	16,29
731,636	16,25
732,072	16,49
732,509	16,43
732,945	16,46
733,38	16,55
733,816	16,48
734,252	16,31
734,688	16,73
735,123	16,62
735,559	16,58
735,994	16,65
736,429	16,65
736,864	16,73
737,299	16,8
737,734	16,84
738,169	16,74
738,604	16,72
739,038	16,65
739,473	16,74
739,907	16,87
740,342	16,77
740,776	16,76
741,21	16,94
741,644	16,85
742,078	16,81
742,512	16,89
742,946	16,94
743,379	16,83
743,813	16,9
744,246	16,96
744,68	16,89
745,113	16,75
745,546	16,72
745,979	16,69
746,412	16,82
746,845	16,75
747,278	16,87
747,711	16,79
748,143	16,87
748,576	16,86
749,008	16,83
749,441	17,02
749,873	16,71
750,305	16,65
750,737	16,6
751,169	16,77
751,601	16,78
752,032	16,79
752,464	16,68
752,896	16,42
753,327	16,62
753,758	16,75
754,19	16,68
754,621	16,72
755,052	16,65
755,483	16,44
755,914	16,41
756,344	16,28
756,775	16,6
757,206	16,58
757,636	16,65
758,066	16,51
758,497	16,32
758,927	16,53
759,357	16,45
759,787	16,49
760,217	16,3
760,647	16,51
761,076	16,58
761,506	16,46
761,935	16,3
762,365	16,35
762,794	16,38
763,223	16,29
763,653	16,37
764,082	16,12
764,51	16,21
764,939	16,29
765,368	16,23
765,797	16,18
766,225	16,2
766,654	16,32
767,082	16,32
767,51	16,21
767,938	16,31
768,367	16,23
768,795	16,21
769,222	16,18
769,65	16,14
770,078	16,09
770,505	16,19
770,933	16,11
771,36	16,09
771,788	16,12
772,215	16,13
772,642	16,13
773,069	15,94
773,496	16,24
773,923	16,05
774,349	16,02
774,776	16,17
775,203	15,94
775,629	15,96
776,055	16,01
776,482	16,02
776,908	16,13
777,334	16,11
777,76	16,15
778,186	15,98
778,611	15,91
779,037	15,84
779,463	15,96
779,888	16,03
780,314	15,88
780,739	15,96
781,164	15,96
781,589	15,99
782,014	15,93
782,439	15,92
782,864	15,85
783,289	16,01
783,713	16,04
784,138	16,01
784,562	15,9
784,987	16,02
785,411	16,01
785,835	15,86
786,259	15,96
786,683	15,99
787,107	15,9
787,531	16,22
787,954	15,77
788,378	16,01
788,802	15,81
789,225	16,01
789,648	15,88
790,071	15,84
790,495	15,86
790,918	15,77
791,34	15,82
791,763	15,9
792,186	15,72
792,609	15,72
793,031	15,7
793,454	15,91
793,876	15,84
794,298	15,73
794,721	15,85
795,143	15,8
795,565	15,96
795,986	15,83
796,408	15,77
796,83	15,82
797,252	15,69
797,673	15,75
798,094	15,71
798,516	15,97
798,937	15,57
799,358	15,8
799,779	15,97
800,2	15,83
800,621	15,7
801,042	15,76
801,462	15,64
801,883	15,79
802,303	15,84
802,724	15,78
803,144	15,87
803,564	15,8
803,984	15,74
804,404	15,89
804,824	15,69
805,244	15,76
805,664	15,61
806,084	15,89
806,503	15,59
806,923	15,78
807,342	15,92
807,761	15,64
808,18	15,74
808,599	15,72
809,018	15,65
809,437	15,78
809,856	15,7
810,275	15,73
810,693	15,81
811,112	15,77
811,53	15,78
811,949	15,67
812,367	15,63
812,785	15,6
813,203	15,65
813,621	15,72
814,039	15,58
814,457	15,75
814,874	15,61
815,292	15,53
815,709	15,65
816,127	15,79
816,544	15,68
816,961	15,73
817,378	15,75
817,795	15,66
818,212	15,87
818,629	15,69
819,046	15,74
819,462	15,73
819,879	15,71
820,295	15,6
820,712	15,77
821,128	15,61
821,544	15,68
821,96	15,55
822,376	15,85
822,792	15,72
823,208	15,89
823,624	15,78
824,039	15,58
824,455	15,67
824,87	15,66
825,286	15,73
825,701	15,66
826,116	15,76
826,531	15,78
826,946	15,7
827,361	15,65
827,776	15,72
828,19	15,64
828,605	15,71
829,02	15,68
829,434	15,43
829,848	15,65
830,263	15,7
830,677	15,61
831,091	15,74
831,505	15,8
831,919	15,78
832,332	15,61
832,746	15,59
833,16	15,57
833,573	15,73
833,987	15,59
834,4	15,57
834,813	15,72
835,226	15,59
835,639	15,61
836,052	15,77
836,465	15,51
836,878	15,6
837,29	15,58
837,703	15,62
838,116	15,58
838,528	15,61
838,94	15,59
839,352	15,61
839,765	15,49
840,177	15,61
840,589	15,69
841	15,58
841,412	15,65
841,824	15,35
842,235	15,57
842,647	15,7
843,058	15,65
843,47	15,68
843,881	15,64
844,292	15,4
844,703	15,55
845,114	15,55
845,525	15,61
845,935	15,46
846,346	15,4
846,757	15,42
847,167	15,45
847,577	15,4
847,988	15,5
848,398	15,57
848,808	15,46
849,218	15,54
849,628	15,53
850,038	15,54
850,448	15,61
850,857	15,69
851,267	15,62
851,676	15,58
852,086	15,5
852,495	15,58
852,904	15,52
853,313	15,53
853,722	15,58
854,131	15,41
854,54	15,37
854,949	15,43
855,357	15,52
855,766	15,47
856,174	15,5
856,583	15,39
856,991	15,63
857,399	15,49
857,807	15,52
858,215	15,57
858,623	15,42
859,031	15,26
859,439	15,55
859,846	15,48
860,254	15,53
860,661	15,48
861,069	15,65
861,476	15,45
861,883	15,57
862,29	15,58
862,697	15,46
863,104	15,48
863,511	15,3
863,918	15,41
864,325	15,61
864,731	15,26
865,138	15,69
865,544	15,38
865,95	15,52
866,357	15,55
866,763	15,45
867,169	15,49
867,575	15,29
867,98	15,39
868,386	15,54
868,792	15,54
869,197	15,4
869,603	15,44
870,008	15,55
870,414	15,55
870,819	15,34
871,224	15,46
871,629	15,39
872,034	15,4
872,439	15,33
872,844	15,4
873,248	15,46
873,653	15,4
874,057	15,58
874,462	15,4
874,866	15,43
875,27	15,53
875,674	15,53
876,078	15,55
876,482	15,28
876,886	15,21
877,29	15,09
877,694	15,44
878,097	15,5
878,501	15,42
878,904	15,38
879,308	15,57
879,711	15,49
880,114	15,51
880,517	15,4
880,92	15,4
881,323	15,28
881,726	15,42
882,128	15,47
882,531	15,38
882,934	15,39
883,336	15,3
883,738	15,41
884,141	15,31
884,543	15,21
884,945	15,55
885,347	15,42
885,749	15,36
886,151	15,21
886,552	15,35
886,954	15,3
887,355	15,35
887,757	15,3
888,158	15,1
888,56	15,5
888,961	15,35
889,362	15,5
889,763	15,21
890,164	15,32
890,565	15,38
890,965	15,64
891,366	15,35
891,767	15,54
892,167	15,12
892,567	15,4
892,968	15,21
893,368	15,19
893,768	15,5
894,168	15,25
894,568	15,5
894,968	15,36
895,368	15,38
895,767	15,43
896,167	15,03
896,566	15,25
896,966	15,21
897,365	15,25
897,764	15,15
898,164	15,55
898,563	15,19
898,962	15,09
899,361	15,09
899,759	15,16
900,158	15,18
900,557	15,36
900,955	15,45
901,354	15,12
901,752	15,14
902,15	15,4
902,548	15,17
902,947	15,18
903,345	15,49
903,742	15,5
904,14	15,22
904,538	15,14
904,936	15,33
905,333	15,24
905,731	15,36
906,128	15,31
906,525	15,35
906,923	15,4
907,32	15,39
907,717	15,25
908,114	15,37
908,511	15,3
908,907	15,33
909,304	15,28
909,701	15,41
910,097	15,37
910,494	15,28
910,89	15,23
911,286	15,28
911,682	15,31
912,078	15,14
912,474	15,14
912,87	15,1
913,266	15,35
913,662	15,42
914,058	15,13
914,453	15,44
914,849	15,33
915,244	15,17
915,639	15,26
916,034	15,33
916,43	15,3
916,825	15,23
917,22	15,63
917,614	15,49
918,009	15,34
918,404	14,94
918,798	15,13
919,193	15,44
919,587	15,4
919,982	15,04
920,376	15,27
920,77	15,33
921,164	15,16
921,558	15,4
921,952	15,14
922,346	15,32
922,74	15,49
923,133	15,3
923,527	15,38
923,92	15,33
924,314	15,25
924,707	15,25
925,1	15,02
925,493	15,12
925,886	15,21
926,279	15,22
926,672	15,28
927,065	15,1
927,457	15,19
927,85	15,35
928,243	15,13
928,635	14,88
929,027	15,25
929,42	15,26
929,812	15,39
930,204	15,15
930,596	15,03
930,988	15,45
931,379	15,05
931,771	15,33
932,163	15,23
932,554	15,07
932,946	15,33
933,337	15,09
933,729	15,22
934,12	15,24
934,511	14,99
934,902	15,14
935,293	15,04
935,684	15,03
936,075	15,25
936,465	15
936,856	14,95
937,246	14,91
937,637	14,99
938,027	14,87
938,417	14,8
938,808	15,21
939,198	15,32
939,588	15,1
939,978	15,23
940,368	15,07
940,757	15,32
941,147	14,89
941,537	14,65
941,926	15,22
942,315	14,96
942,705	15,31
943,094	15,34
943,483	15,04
943,872	15,19
944,261	15,29
944,65	14,55
945,039	15,21
945,428	14,75
945,816	14,52
946,205	15,2
946,593	15,53
946,982	15,13
947,37	15,53
947,758	15,24
948,146	14,99
948,534	14,99
948,922	15,34
949,31	14,56
949,698	15,04
950,086	15,07
950,473	14,92
950,861	14,82
951,248	14,59
951,636	14,63
952,023	14,68
952,41	14,43
952,797	14,83
953,184	15,15
953,571	14,94
953,958	14,73
954,345	15,23
954,731	14,97
955,118	15,05
955,505	15,09
955,891	14,99
956,277	14,94
956,664	14,74
957,05	14,8
957,436	14,92
957,822	14,8
958,208	15,13
958,594	14,81
958,979	14,92
959,365	14,8
959,751	14,99
960,136	14,8
960,522	14,74
960,907	14,92
961,292	14,5
961,677	14,83
962,062	14,88
962,447	14,79
962,832	14,5
963,217	14,68
963,602	14,81
963,986	14,93
964,371	14,8
964,756	14,84
965,14	14,89
965,524	14,66
965,908	14,73
966,293	14,64
966,677	14,46
967,061	14,82
967,445	14,68
967,828	14,71
968,212	14,69
968,596	14,7
968,979	14,87
969,363	14,61
969,746	14,78
970,129	14,89
970,513	14,87
970,896	14,81
971,279	14,61
971,662	14,86
972,045	14,8
972,428	14,75
972,81	14,73
973,193	14,95
973,575	15,12
973,958	14,8
974,34	14,71
974,723	14,74
975,105	14,89
975,487	14,74
975,869	14,85
976,251	14,65
976,633	14,58
977,015	15,05
977,396	15,05
977,778	14,91
978,16	14,94
978,541	15,12
978,922	14,75
979,304	14,83
979,685	14,61
980,066	14,98
980,447	14,82
980,828	14,91
981,209	14,91
981,59	14,7
981,97	14,94
982,351	15,03
982,732	14,57
983,112	14,75
983,493	14,9
983,873	14,91
984,253	14,56
984,633	14,88
985,013	14,78
985,393	14,38
985,773	14,65
986,153	14,47
986,533	14,9
986,912	14,73
987,292	14,8
987,671	15,04
988,051	14,89
988,43	14,74
988,809	14,72
989,188	14,49
989,567	14,92
989,946	14,9
990,325	14,93
990,704	14,99
991,083	14,82
991,461	14,8
991,84	14,89
992,218	14,68
992,597	14,9
992,975	14,92
993,353	14,76
993,732	14,89
994,11	14,61
994,488	14,8
994,866	15,07
995,243	14,99
995,621	14,67
995,999	14,61
996,376	14,96
996,754	14,69
997,131	14,79
997,509	14,53
997,886	15,17
998,263	14,81
998,64	15,01
999,017	14,99
999,394	14,79
999,771	15,12
1000,148	14,67
1000,524	14,87
1000,901	15,01
1001,277	14,67
1001,654	15,1
1002,03	14,78
1002,406	14,71
1002,783	15,35
1003,159	14,98
1003,535	14,92
1003,911	14,94
1004,286	14,92
1004,662	14,67
1005,038	15,02
1005,414	14,6
1005,789	14,7
1006,164	14,71
1006,54	14,95
1006,915	14,79
1007,29	14,59
1007,665	15,08
1008,04	14,79
1008,415	14,86
1008,79	14,89
1009,165	15
1009,54	14,93
1009,914	14,92
1010,289	14,84
1010,663	15
1011,038	14,87
1011,412	15,25
1011,786	14,71
1012,16	14,47
1012,535	14,93
1012,909	14,7
1013,282	14,65
1013,656	14,85
1014,03	15,13
1014,404	14,47
1014,777	14,64
1015,151	14,59
1015,524	14,69
1015,897	15,08
1016,271	15,18
1016,644	14,79
1017,017	14,82
1017,39	14,97
1017,763	15,11
1018,136	14,96
1018,508	14,64
1018,881	14,8
1019,254	15,13
1019,626	14,63
1019,999	15,1
1020,371	15,1
1020,743	15,01
1021,116	14,98
1021,488	14,85
1021,86	14,9
1022,232	14,95
1022,604	14,88
1022,975	15,22
1023,347	14,91
1023,719	14,93
1024,09	14,73
1024,462	15,07
1024,833	15,03
1025,204	14,87
1025,576	15,22
1025,947	14,71
1026,318	14,84
1026,689	15,08
1027,06	14,88
1027,431	14,86
1027,801	14,69
1028,172	15,38
1028,543	14,73
1028,913	14,83
1029,284	15,29
1029,654	14,94
1030,024	14,72
1030,394	14,82
1030,764	14,51
1031,135	14,98
1031,504	14,93
1031,874	15,18
1032,244	14,99
1032,614	15,4
1032,983	15,07
1033,353	15,01
1033,722	14,85
1034,092	15,08
1034,461	14,83
1034,83	14,56
1035,2	15,32
1035,569	15,5
1035,938	14,68
1036,307	14,74
1036,675	14,82
1037,044	15,09
1037,413	15,06
1037,781	14,94
1038,15	14,76
1038,518	14,46
1038,887	15,54
1039,255	14,86
1039,623	15,12
1039,991	15,57
1040,359	15,07
1040,727	15,12
1041,095	14,35
1041,463	15,14
1041,831	14,98
1042,198	15,39
1042,566	15,05
1042,933	14,87
1043,301	15,74
1043,668	14,86
1044,035	14,88
1044,402	15,23
1044,77	15,1
1045,137	14,58
1045,503	15,37
1045,87	14,87
1046,237	14,92
1046,604	14,74
1046,97	15,43
1047,337	15,26
1047,703	14,97
1048,07	15,19
1048,436	15,39
1048,802	14,51
1049,168	14,98
1049,534	15,05
1049,9	14,95
1050,266	14,6
1050,632	15,1
1050,998	14,66
1051,364	15,31
1051,729	15,23
1052,095	15,16
1052,46	15,14
1052,825	14,27
1053,191	15,21
1053,556	15,14
1053,921	14,54
1054,286	15,3
1054,651	15,3
1055,016	15,05
1055,381	15,41
1055,745	14,55
1056,11	15,18
1056,475	15,59
1056,839	15,68
1057,203	15,32
1057,568	14,93
1057,932	15,53
1058,296	15,1
1058,66	15,56
1059,024	14,94
1059,388	15,52
1059,752	15,26
1060,116	14,76
1060,48	14,45
1060,843	15,24
1061,207	14,73
1061,57	15,52
1061,934	15,02
1062,297	14,71
1062,66	14,41
1063,023	15,04
1063,386	14,91
1063,749	15,25
1064,112	14,07
1064,475	15,08
1064,838	14,69
1065,201	13,82
1065,563	15,14
1065,926	15,36
1066,288	14,79
1066,651	14,75
1067,013	15,05
1067,375	16,05
1067,737	14,54
1068,099	14,57
1068,461	15,43
1068,823	15,22
1069,185	15
1069,547	15,68
1069,909	14,41
1070,27	14,44
1070,632	14,4
1070,993	14,44
1071,355	14,98
1071,716	14,84
1072,077	14,71
1072,438	14,96
1072,799	14,73
1073,16	14,59
1073,521	15,33
1073,882	15,39
1074,243	15,65
1074,603	14,91
1074,964	14,8
1075,325	14,46
1075,685	14,94
1076,045	15,71
1076,406	14,49
1076,766	14,27
1077,126	15,13
1077,486	14,61
1077,846	15,23
1078,206	16,41
1078,566	14,55
1078,925	15,87
1079,285	15,61
1079,645	15,32
1080,004	15
1080,364	14,62
1080,723	14,41
1081,082	14,44
1081,442	14,81
1081,801	14,03
1082,16	15,32
1082,519	14,97
1082,878	15,17
1083,237	13,95
1083,595	14,74
1083,954	15,05
1084,313	14,79
1084,671	14,81
1085,03	14,76
1085,388	14,97
1085,746	14,74
1086,104	14,92
1086,463	13,8
1086,821	13,88
1087,179	14,59
1087,537	14,71
1087,894	15,82
1088,252	15,52
1088,61	15,25
1088,967	15,77
1089,325	15,39
1089,682	14,76
1090,04	15,06
1090,397	15,07
1090,754	14,97
1091,111	15,27
1091,469	15,87
1091,826	15,74
1092,182	14,53
1092,539	15,73
1092,896	15,19
1093,253	15,9
1093,609	15,37
1093,966	15,4
1094,322	15,72
1094,679	15,29
1095,035	14,91
1095,391	15,8
1095,748	15,43
1096,104	14,75
1096,46	15,46
1096,816	14,75
1097,171	15,95
1097,527	15,01
1097,883	15,44
1098,239	14,84
1098,594	15,33
1098,95	15,51
1099,305	15,86
1099,66	14,83
1100,016	15,04
1100,371	15,22
1100,726	14,3
1101,081	14,47
1101,436	15,66
1101,791	14,46
1102,146	15,57
1102,5	15,24
1102,855	14,67
1103,21	15,31
1103,564	16,48
1103,918	14,7
1104,273	15,27
1104,627	15,88
1104,981	15,56
1105,335	15,21
1105,69	15,71
1106,043	14,41
1106,397	14,93
1106,751	14,61
1107,105	15,61
1107,459	14,2
1107,812	14,12
1108,166	16,38
1108,519	14,55
1108,873	14,17
1109,226	15,03
1109,579	15,15
1109,932	14,43
1110,285	12,99
1110,638	16,35
1110,991	13,87
1111,344	14,59
1111,697	14,37
1112,05	14,37
1112,402	14,9
1112,755	14,83
1113,107	13,14
1113,46	16,5
1113,812	15,37
1114,164	15,61
1114,517	16,14
1114,869	1,12
1115,221	3,65
1115,573	9,79
1115,924	6,57
