Data from I_2_0_Relative__6__00181.txt Node

Date: Mon Jan 29 13:08:47 CET 2024
User: diatiterra
Spectrometer: HDX00911
Trigger mode: 0
Integration Time (sec): 6,000000E-3
Scans to average: 2
Nonlinearity correction enabled: false
Boxcar width: 0
Storing dark spectrum: false
XAxis mode: Wavelengths
Number of Pixels in Spectrum: 2068
>>>>>Begin Spectral Data<<<<<
194,468	9,76
195,025	2,01
195,581	-6,4
196,138	16,96
196,694	14,33
197,251	10,61
197,807	15,2
198,363	13,17
198,919	17,34
199,474	12,44
200,03	6,84
200,586	14,14
201,141	9,4
201,696	9,89
202,251	8,55
202,806	9,86
203,361	9,7
203,916	10,87
204,471	9,75
205,025	13,55
205,58	14,99
206,134	10,06
206,688	9,33
207,242	15,5
207,796	15,92
208,35	14,58
208,904	14,69
209,457	16,56
210,011	8,25
210,564	15,18
211,117	14,89
211,67	16,7
212,223	8,99
212,776	16,33
213,329	20,2
213,881	9,86
214,434	12,91
214,986	15,87
215,538	16,15
216,09	15,35
216,642	14,99
217,194	14,17
217,746	14,62
218,297	10,3
218,849	14,59
219,4	14,2
219,951	16
220,502	12,85
221,053	11,13
221,604	15,62
222,155	13,33
222,705	13,15
223,256	18,44
223,806	11,11
224,356	15,17
224,906	16,35
225,456	13,26
226,006	11,14
226,556	10,02
227,106	14,73
227,655	10,02
228,204	5,97
228,754	21,56
229,303	14,73
229,852	12,1
230,401	10,81
230,949	20
231,498	9,56
232,047	18,2
232,595	10,67
233,143	21,59
233,691	15,98
234,239	7,14
234,787	12,95
235,335	14,84
235,883	12,05
236,43	8,68
236,978	14,58
237,525	6,92
238,072	18,74
238,619	12,62
239,166	15,67
239,713	14,29
240,26	16,8
240,806	23,59
241,353	10,34
241,899	15,86
242,445	7,63
242,991	14,53
243,537	10,07
244,083	14,52
244,629	16,31
245,174	20,09
245,72	21,78
246,265	12,82
246,81	16,48
247,355	24
247,9	20,57
248,445	13,01
248,99	20,12
249,534	12,7
250,079	16,89
250,623	14,98
251,168	12,75
251,712	22,37
252,256	20
252,8	22,22
253,343	13,98
253,887	19,57
254,43	19,53
254,974	14,82
255,517	21,75
256,06	15,67
256,603	13,64
257,146	17,17
257,689	24,89
258,232	23,58
258,774	15,1
259,317	19,86
259,859	23,23
260,401	25,11
260,943	14
261,485	16
262,027	15,32
262,569	21,5
263,11	22,86
263,652	19,29
264,193	16,49
264,734	4,13
265,275	15,26
265,816	17,8
266,357	14,97
266,898	8,9
267,438	18,81
267,979	23,45
268,519	19,91
269,059	11,68
269,6	16,03
270,14	10,36
270,68	17,37
271,219	20,25
271,759	20
272,298	11,58
272,838	7,8
273,377	14,2
273,916	6,94
274,455	17,59
274,994	18,5
275,533	17,09
276,072	19,1
276,61	22,03
277,149	16,02
277,687	21,05
278,225	9,28
278,763	22,17
279,301	18
279,839	10,97
280,377	6,4
280,914	12,53
281,452	12,16
281,989	15,38
282,526	17,38
283,064	16,73
283,601	6,5
284,137	12,38
284,674	12,38
285,211	17,86
285,747	18,62
286,284	14,38
286,82	20,27
287,356	16,11
287,892	10,88
288,428	15,02
288,964	12,24
289,5	11,24
290,035	17,22
290,571	8,54
291,106	13,12
291,641	18,18
292,176	18,58
292,711	17,32
293,246	13,3
293,781	13,09
294,315	10,72
294,85	6,86
295,384	15,28
295,918	12,89
296,453	21,23
296,987	13,98
297,52	16,45
298,054	11,41
298,588	15
299,121	18,18
299,655	14,71
300,188	8,66
300,721	17,91
301,254	6,62
301,787	10,41
302,32	15,21
302,853	16,52
303,385	19,82
303,918	11,14
304,45	13,16
304,982	14
305,514	10,88
306,046	12,25
306,578	19,22
307,11	16,55
307,641	16,52
308,173	11,36
308,704	14,29
309,236	21,41
309,767	13,41
310,298	12,42
310,829	15,96
311,359	8,18
311,89	14,67
312,421	10,99
312,951	18,14
313,481	16,59
314,012	17,9
314,542	8,94
315,072	16,33
315,601	13,51
316,131	14,65
316,661	17,15
317,19	18,33
317,72	9,52
318,249	13,09
318,778	16,18
319,307	10,82
319,836	7,62
320,365	15,21
320,893	6,2
321,422	10,37
321,95	14,89
322,479	13,54
323,007	10,63
323,535	12,33
324,063	11,82
324,591	9,46
325,118	8,79
325,646	12,74
326,173	9,82
326,701	15,48
327,228	10
327,755	5,98
328,282	2,67
328,809	13,91
329,336	7,16
329,862	12,95
330,389	12,64
330,915	10,45
331,441	17,25
331,968	9,88
332,494	11
333,02	10,97
333,545	8,25
334,071	6,47
334,597	4,81
335,122	20,94
335,648	14,69
336,173	12,8
336,698	5,05
337,223	6,94
337,748	8,4
338,272	11,09
338,797	6,07
339,322	10,63
339,846	12,55
340,37	11,14
340,894	12,69
341,419	11,55
341,942	10,14
342,466	10,02
342,99	14,11
343,514	7,97
344,037	11,2
344,56	7,09
345,084	9,85
345,607	11,55
346,13	11,83
346,653	13,07
347,175	11,34
347,698	8,06
348,221	7,26
348,743	12,27
349,265	14,09
349,787	9,96
350,309	5,98
350,831	8,1
351,353	11,53
351,875	8,72
352,397	8
352,918	12,29
353,439	13,81
353,961	10,59
354,482	6,73
355,003	10,15
355,524	16,62
356,044	9,87
356,565	12,16
357,086	10,64
357,606	8,08
358,126	19,44
358,646	13,14
359,167	15,3
359,687	14,78
360,206	12,11
360,726	11,59
361,246	13,09
361,765	11,33
362,285	11,93
362,804	13,26
363,323	13,06
363,842	13,62
364,361	8,82
364,88	15,92
365,398	14,34
365,917	11,21
366,435	8,61
366,954	11,72
367,472	13,48
367,99	14,92
368,508	10,46
369,026	9,06
369,544	6,83
370,061	13,77
370,579	10,42
371,096	13,18
371,613	11,15
372,131	12,16
372,648	9,58
373,165	11,62
373,681	7,1
374,198	11,87
374,715	8,4
375,231	17,28
375,747	7,46
376,264	9,17
376,78	10,72
377,296	12,13
377,812	13,54
378,327	13,16
378,843	11,33
379,359	14,29
379,874	8,41
380,389	9,04
380,905	10,21
381,42	11,31
381,935	9,94
382,449	10,43
382,964	8,23
383,479	7,3
383,993	8,35
384,508	9,94
385,022	9,85
385,536	8,7
386,05	9,32
386,564	7,32
387,078	10,21
387,592	8,51
388,105	9,28
388,619	9,12
389,132	9,43
389,645	9,56
390,158	9,75
390,671	9,91
391,184	7,8
391,697	6,71
392,21	9,25
392,722	7,52
393,235	7,34
393,747	5,68
394,259	7,2
394,771	6,43
395,283	8,65
395,795	8,04
396,307	8,15
396,818	8,39
397,33	8,9
397,841	8,29
398,353	6,07
398,864	7,18
399,375	6,57
399,886	8,72
400,397	7,15
400,907	7,16
401,418	9,04
401,928	6,14
402,439	5,94
402,949	7,15
403,459	5,3
403,969	6,21
404,479	5,28
404,989	5,53
405,498	5,97
406,008	6,1
406,517	5,29
407,027	4,64
407,536	4,94
408,045	4,42
408,554	5,25
409,063	4,1
409,572	4,18
410,08	3,98
410,589	3,89
411,097	3,77
411,606	3,24
412,114	3,83
412,622	3,43
413,13	2,42
413,638	2,86
414,145	3,88
414,653	3,22
415,16	3,32
415,668	3,12
416,175	3,43
416,682	3,5
417,189	3,11
417,696	2,88
418,203	2,7
418,71	2,48
419,216	2,84
419,723	3,21
420,229	3
420,735	2,96
421,242	2,88
421,748	2,52
422,254	3,06
422,759	2,82
423,265	2,45
423,771	2,56
424,276	3,3
424,781	2,71
425,287	2,69
425,792	1,99
426,297	2,14
426,802	2,46
427,306	2,74
427,811	2,4
428,316	2,73
428,82	2,07
429,324	2,51
429,829	2,62
430,333	2,11
430,837	2,65
431,34	2,47
431,844	2,04
432,348	2,39
432,851	2,21
433,355	2,16
433,858	2,51
434,361	2,32
434,864	2,02
435,367	2,43
435,87	2,31
436,373	2,12
436,876	2,7
437,378	2,24
437,88	2,29
438,383	2,26
438,885	2,47
439,387	2,44
439,889	2,25
440,391	2,77
440,892	2,54
441,394	2,33
441,896	2,27
442,397	2,54
442,898	2,5
443,399	2,45
443,9	2,44
444,401	2,27
444,902	2,51
445,403	2,14
445,903	2,39
446,404	2,36
446,904	2,12
447,405	2,23
447,905	2,55
448,405	2,51
448,905	2,37
449,404	2,51
449,904	2,33
450,404	2,02
450,903	2,56
451,403	2,52
451,902	2,88
452,401	2,57
452,9	2,51
453,399	2,62
453,898	2,53
454,396	2,51
454,895	2,64
455,393	2,69
455,892	2,58
456,39	2,55
456,888	2,74
457,386	2,54
457,884	2,58
458,382	2,42
458,879	2,47
459,377	2,61
459,874	2,51
460,372	2,79
460,869	2,6
461,366	2,65
461,863	2,69
462,36	2,51
462,857	2,82
463,353	2,66
463,85	2,49
464,346	2,58
464,843	2,42
465,339	2,4
465,835	2,54
466,331	2,59
466,827	2,61
467,323	2,63
467,818	2,54
468,314	2,56
468,809	2,57
469,305	2,41
469,8	2,6
470,295	2,7
470,79	2,5
471,285	2,61
471,78	2,55
472,274	2,68
472,769	2,67
473,263	2,44
473,758	2,61
474,252	2,69
474,746	2,66
475,24	2,49
475,734	2,55
476,228	2,68
476,721	2,65
477,215	2,46
477,708	2,71
478,202	2,65
478,695	2,73
479,188	2,7
479,681	2,65
480,174	2,57
480,667	2,53
481,159	2,6
481,652	2,57
482,144	2,64
482,637	2,58
483,129	2,53
483,621	2,74
484,113	2,57
484,605	2,82
485,097	2,61
485,588	2,6
486,08	2,69
486,571	3,08
487,063	2,81
487,554	2,82
488,045	2,63
488,536	2,74
489,027	2,74
489,518	2,89
490,008	2,6
490,499	2,71
490,989	2,72
491,48	2,59
491,97	2,87
492,46	2,78
492,95	2,79
493,44	2,83
493,93	2,84
494,419	2,74
494,909	3,01
495,398	3,01
495,888	2,91
496,377	2,88
496,866	2,99
497,355	2,88
497,844	3
498,333	3
498,821	3,13
499,31	3,2
499,798	3,12
500,287	3,38
500,775	3,41
501,263	3,07
501,751	3,29
502,239	3,43
502,727	3,3
503,215	3,42
503,702	3,52
504,19	3,61
504,677	3,41
505,164	3,7
505,651	3,75
506,139	3,81
506,625	3,79
507,112	4,08
507,599	3,73
508,086	4,29
508,572	4,16
509,058	4,2
509,545	4,2
510,031	4,4
510,517	4,51
511,003	4,47
511,489	4,51
511,974	4,47
512,46	5,02
512,946	4,75
513,431	4,84
513,916	5,02
514,401	5,33
514,887	5,24
515,371	5,51
515,856	5,71
516,341	5,64
516,826	5,69
517,31	5,76
517,795	6,03
518,279	6,05
518,763	6,09
519,247	6,15
519,731	6,35
520,215	6,34
520,699	6,44
521,182	6,74
521,666	7
522,149	7,11
522,633	6,99
523,116	7,24
523,599	7,29
524,082	7,24
524,565	7,64
525,048	7,43
525,53	7,66
526,013	8,1
526,495	8,02
526,978	8,01
527,46	8,11
527,942	8,15
528,424	8,1
528,906	8,42
529,388	8,37
529,87	8,69
530,351	8,68
530,833	8,65
531,314	8,81
531,795	8,89
532,277	8,83
532,758	8,88
533,238	9,05
533,719	8,96
534,2	9,12
534,681	9,24
535,161	9,31
535,642	9,02
536,122	9,19
536,602	8,9
537,082	8,86
537,562	9,25
538,042	9,01
538,522	9,19
539,001	9,24
539,481	9,39
539,96	9,22
540,44	9,16
540,919	9,26
541,398	9,42
541,877	9,29
542,356	9,41
542,835	9,2
543,313	9,39
543,792	9,58
544,27	9,51
544,749	9,27
545,227	9,47
545,705	9,49
546,183	9,64
546,661	9,31
547,139	9,59
547,616	9,55
548,094	9,65
548,571	9,48
549,049	9,48
549,526	9,88
550,003	9,72
550,48	9,65
550,957	9,58
551,434	9,82
551,911	9,48
552,387	9,43
552,864	9,81
553,34	9,5
553,817	9,72
554,293	9,72
554,769	9,66
555,245	9,75
555,721	9,5
556,197	9,72
556,672	9,72
557,148	9,63
557,623	9,54
558,099	9,41
558,574	9,68
559,049	9,48
559,524	9,59
559,999	9,38
560,474	9,61
560,948	9,64
561,423	9,55
561,897	9,46
562,372	9,43
562,846	9,24
563,32	9,32
563,794	9,43
564,268	9,28
564,742	9,14
565,216	9,28
565,69	9,1
566,163	9,03
566,636	9,03
567,11	8,93
567,583	8,99
568,056	8,88
568,529	8,97
569,002	8,82
569,475	8,87
569,947	8,7
570,42	8,6
570,892	8,59
571,365	8,59
571,837	8,51
572,309	8,36
572,781	8,23
573,253	8,31
573,725	8,1
574,197	8,16
574,668	7,81
575,14	8,06
575,611	7,8
576,082	7,95
576,554	7,89
577,025	7,85
577,496	7,79
577,967	7,72
578,437	7,67
578,908	7,61
579,379	7,49
579,849	7,43
580,319	7,45
580,79	7,45
581,26	7,25
581,73	7,22
582,2	7,27
582,669	7,16
583,139	7,05
583,609	7,32
584,078	7,05
584,548	7,31
585,017	7,05
585,486	6,92
585,955	6,95
586,424	6,86
586,893	6,83
587,362	6,85
587,83	6,94
588,299	6,81
588,767	6,67
589,236	6,83
589,704	6,72
590,172	6,75
590,64	6,64
591,108	6,54
591,576	6,84
592,043	6,69
592,511	6,52
592,978	6,47
593,446	6,49
593,913	6,45
594,38	6,63
594,847	6,54
595,314	6,49
595,781	6,44
596,248	6,55
596,715	6,34
597,181	6,28
597,647	6,49
598,114	6,38
598,58	6,33
599,046	6,23
599,512	6,43
599,978	6,34
600,444	6,35
600,91	6,25
601,375	6,28
601,841	6,26
602,306	6,23
602,771	6,32
603,236	6,22
603,702	6,19
604,167	6,24
604,631	6,17
605,096	6,2
605,561	6,21
606,025	6,03
606,49	5,82
606,954	6,12
607,418	6,07
607,882	5,99
608,347	5,9
608,81	5,95
609,274	5,92
609,738	5,96
610,202	5,73
610,665	5,72
611,128	5,75
611,592	5,71
612,055	5,68
612,518	5,57
612,981	5,61
613,444	5,61
613,907	5,52
614,369	5,49
614,832	5,41
615,294	5,41
615,757	5,4
616,219	5,35
616,681	5,34
617,143	5,28
617,605	5,21
618,067	5,33
618,529	5,16
618,99	5,17
619,452	5,1
619,913	5,07
620,375	5,13
620,836	5,1
621,297	5,08
621,758	5,12
622,219	5
622,68	5,08
623,14	4,99
623,601	4,96
624,061	4,96
624,522	4,95
624,982	4,95
625,442	4,92
625,902	4,92
626,362	4,85
626,822	4,92
627,282	4,9
627,742	4,86
628,201	4,95
628,661	4,9
629,12	4,87
629,579	4,72
630,038	4,81
630,497	4,85
630,956	4,84
631,415	4,78
631,874	4,86
632,332	4,85
632,791	4,64
633,249	4,61
633,708	4,57
634,166	4,64
634,624	4,72
635,082	4,73
635,54	4,6
635,998	4,61
636,455	4,62
636,913	4,52
637,37	4,51
637,828	4,55
638,285	4,41
638,742	4,52
639,199	4,28
639,656	4,25
640,113	4,27
640,57	4,21
641,027	4,27
641,483	4,1
641,94	4,17
642,396	3,96
642,852	4,14
643,309	4,02
643,765	3,94
644,221	3,95
644,676	3,89
645,132	3,81
645,588	3,83
646,043	3,78
646,499	3,73
646,954	3,66
647,409	3,68
647,864	3,61
648,319	3,55
648,774	3,46
649,229	3,48
649,684	3,39
650,139	3,51
650,593	3,41
651,047	3,45
651,502	3,35
651,956	3,37
652,41	3,31
652,864	3,33
653,318	3,25
653,772	3,26
654,225	3,32
654,679	3,29
655,133	3,18
655,586	3,23
656,039	3,16
656,492	3,2
656,946	3,2
657,399	3,12
657,851	3,11
658,304	3,07
658,757	3,03
659,209	3
659,662	2,97
660,114	2,96
660,567	2,99
661,019	2,89
661,471	2,86
661,923	2,87
662,375	2,88
662,826	2,81
663,278	2,77
663,73	2,78
664,181	2,75
664,632	2,73
665,084	2,61
665,535	2,61
665,986	2,68
666,437	2,65
666,888	2,6
667,338	2,62
667,789	2,66
668,24	2,59
668,69	2,59
669,14	2,54
669,591	2,59
670,041	2,59
670,491	2,62
670,941	2,58
671,391	2,68
671,84	2,62
672,29	2,62
672,74	2,58
673,189	2,68
673,638	2,62
674,088	2,72
674,537	2,72
674,986	2,77
675,435	2,73
675,883	2,8
676,332	2,82
676,781	2,84
677,229	2,87
677,678	2,87
678,126	2,91
678,574	2,96
679,022	2,93
679,47	3,04
679,918	3,08
680,366	3,15
680,814	3,17
681,261	3,18
681,709	3,19
682,156	3,23
682,604	3,25
683,051	3,32
683,498	3,31
683,945	3,37
684,392	3,36
684,839	3,46
685,286	3,54
685,732	3,64
686,179	3,59
686,625	3,68
687,071	3,74
687,518	3,82
687,964	3,83
688,41	4,03
688,856	3,96
689,301	4,14
689,747	4,26
690,193	4,39
690,638	4,54
691,084	4,7
691,529	4,79
691,974	4,94
692,419	5,09
692,864	5,31
693,309	5,41
693,754	5,58
694,199	5,8
694,643	6,01
695,088	6,2
695,532	6,3
695,977	6,59
696,421	6,79
696,865	7,01
697,309	7,08
697,753	7,54
698,197	7,53
698,64	7,62
699,084	7,97
699,527	8,26
699,971	8,21
700,414	8,64
700,857	8,66
701,3	8,83
701,743	8,99
702,186	9,2
702,629	9,36
703,072	9,56
703,515	9,69
703,957	9,82
704,399	9,85
704,842	10,2
705,284	10,16
705,726	10,39
706,168	10,36
706,61	10,67
707,052	10,94
707,494	10,86
707,935	11,06
708,377	11,17
708,818	11,32
709,26	11,39
709,701	11,48
710,142	11,51
710,583	11,74
711,024	11,89
711,465	11,91
711,905	12,06
712,346	12,21
712,787	12,15
713,227	12,35
713,667	12,34
714,108	12,55
714,548	12,73
714,988	12,78
715,428	12,78
715,868	12,85
716,307	12,94
716,747	12,95
717,186	13,18
717,626	13,16
718,065	13,13
718,504	13,39
718,944	13,53
719,383	13,59
719,822	13,64
720,261	13,61
720,699	13,77
721,138	13,75
721,576	13,86
722,015	13,83
722,453	13,87
722,892	13,93
723,33	14,15
723,768	14,1
724,206	14,09
724,644	14,19
725,081	14,18
725,519	14,39
725,957	14,23
726,394	14,33
726,832	14,39
727,269	14,5
727,706	14,56
728,143	14,6
728,58	14,5
729,017	14,81
729,454	14,66
729,89	14,63
730,327	14,73
730,764	14,78
731,2	14,89
731,636	14,86
732,072	14,77
732,509	14,84
732,945	14,84
733,38	14,81
733,816	14,87
734,252	14,88
734,688	14,98
735,123	14,9
735,559	14,97
735,994	14,7
736,429	14,9
736,864	14,97
737,299	14,97
737,734	14,95
738,169	15,08
738,604	14,99
739,038	15,13
739,473	14,96
739,907	15,14
740,342	15,04
740,776	14,91
741,21	14,87
741,644	14,98
742,078	14,94
742,512	14,92
742,946	14,9
743,379	15,04
743,813	15,03
744,246	14,87
744,68	15
745,113	14,94
745,546	14,93
745,979	14,97
746,412	15,01
746,845	15,05
747,278	14,97
747,711	15,1
748,143	14,97
748,576	15,1
749,008	14,97
749,441	14,9
749,873	14,86
750,305	14,97
750,737	14,88
751,169	14,79
751,601	14,91
752,032	14,95
752,464	14,76
752,896	14,84
753,327	14,91
753,758	14,92
754,19	14,8
754,621	14,83
755,052	14,87
755,483	14,73
755,914	14,64
756,344	14,83
756,775	14,69
757,206	14,65
757,636	14,84
758,066	14,81
758,497	14,66
758,927	14,74
759,357	14,74
759,787	14,58
760,217	14,64
760,647	14,67
761,076	14,6
761,506	14,5
761,935	14,4
762,365	14,65
762,794	14,55
763,223	14,66
763,653	14,56
764,082	14,56
764,51	14,64
764,939	14,46
765,368	14,46
765,797	14,47
766,225	14,57
766,654	14,58
767,082	14,44
767,51	14,63
767,938	14,44
768,367	14,67
768,795	14,35
769,222	14,41
769,65	14,49
770,078	14,47
770,505	14,44
770,933	14,34
771,36	14,47
771,788	14,44
772,215	14,36
772,642	14,28
773,069	14,43
773,496	14,44
773,923	14,44
774,349	14,39
774,776	14,51
775,203	14,3
775,629	14,43
776,055	14,31
776,482	14,29
776,908	14,42
777,334	14,57
777,76	14,26
778,186	14,4
778,611	14,35
779,037	14,28
779,463	14,35
779,888	14,35
780,314	14,13
780,739	14,38
781,164	14,32
781,589	14,34
782,014	14,25
782,439	14,08
782,864	14,32
783,289	14,31
783,713	14,35
784,138	14,15
784,562	14,16
784,987	14,25
785,411	14,25
785,835	14,1
786,259	14,21
786,683	14,29
787,107	14,2
787,531	14,21
787,954	14,22
788,378	14,12
788,802	14,11
789,225	14,18
789,648	14,19
790,071	14,01
790,495	14,2
790,918	13,94
791,34	14,23
791,763	14,18
792,186	14,06
792,609	14,24
793,031	14,2
793,454	14,24
793,876	14,07
794,298	14,09
794,721	14,1
795,143	14,33
795,565	14,34
795,986	14,15
796,408	14,12
796,83	13,92
797,252	14,18
797,673	14
798,094	14,06
798,516	14,24
798,937	14,09
799,358	14,32
799,779	14,3
800,2	14,11
800,621	14,25
801,042	14,18
801,462	14,05
801,883	14,22
802,303	14,15
802,724	14,1
803,144	14,02
803,564	14,13
803,984	13,89
804,404	14,3
804,824	14,03
805,244	14,26
805,664	13,94
806,084	14,09
806,503	14
806,923	14,18
807,342	14,15
807,761	14,06
808,18	14,01
808,599	14
809,018	14,16
809,437	13,96
809,856	14,04
810,275	14,11
810,693	14,23
811,112	14,18
811,53	14,01
811,949	14,15
812,367	14,1
812,785	14,05
813,203	13,99
813,621	14,15
814,039	13,93
814,457	14,17
814,874	14,13
815,292	14,04
815,709	14,12
816,127	14,2
816,544	14,02
816,961	14,2
817,378	13,81
817,795	14,01
818,212	14,01
818,629	14,09
819,046	14
819,462	14,01
819,879	13,95
820,295	13,99
820,712	13,99
821,128	14,06
821,544	13,93
821,96	14,04
822,376	14,01
822,792	14,04
823,208	13,88
823,624	14,02
824,039	14,12
824,455	14,01
824,87	13,82
825,286	14,03
825,701	13,96
826,116	13,88
826,531	13,97
826,946	14,01
827,361	14,02
827,776	14,03
828,19	14
828,605	14,16
829,02	14,05
829,434	14
829,848	14,01
830,263	14,09
830,677	13,89
831,091	13,98
831,505	14
831,919	13,99
832,332	14
832,746	14
833,16	13,76
833,573	14,06
833,987	13,94
834,4	14
834,813	13,85
835,226	13,95
835,639	13,97
836,052	13,98
836,465	13,97
836,878	14,03
837,29	13,93
837,703	13,97
838,116	13,97
838,528	13,81
838,94	14,08
839,352	13,98
839,765	13,98
840,177	13,81
840,589	13,98
841	13,81
841,412	13,91
841,824	13,82
842,235	13,97
842,647	13,84
843,058	14,01
843,47	13,94
843,881	14,03
844,292	13,94
844,703	13,98
845,114	13,73
845,525	14
845,935	13,85
846,346	14,01
846,757	13,9
847,167	13,88
847,577	14,03
847,988	13,94
848,398	13,93
848,808	13,9
849,218	13,92
849,628	13,98
850,038	14,05
850,448	13,93
850,857	13,83
851,267	13,82
851,676	13,95
852,086	13,97
852,495	14,06
852,904	13,82
853,313	13,94
853,722	14,05
854,131	13,75
854,54	13,94
854,949	13,97
855,357	13,79
855,766	14
856,174	13,98
856,583	13,82
856,991	14,08
857,399	14,14
857,807	13,78
858,215	13,88
858,623	13,89
859,031	13,95
859,439	13,99
859,846	13,76
860,254	13,87
860,661	13,84
861,069	13,92
861,476	13,96
861,883	13,76
862,29	14,02
862,697	13,88
863,104	13,84
863,511	13,62
863,918	13,79
864,325	13,94
864,731	13,77
865,138	13,78
865,544	13,81
865,95	13,94
866,357	13,97
866,763	13,71
867,169	13,74
867,575	13,79
867,98	13,92
868,386	13,85
868,792	13,92
869,197	13,97
869,603	14,02
870,008	13,77
870,414	13,81
870,819	13,79
871,224	13,68
871,629	13,74
872,034	13,83
872,439	13,7
872,844	13,63
873,248	13,55
873,653	13,89
874,057	13,92
874,462	13,86
874,866	13,77
875,27	13,77
875,674	13,83
876,078	13,73
876,482	13,87
876,886	13,84
877,29	14,02
877,694	13,84
878,097	13,66
878,501	13,93
878,904	13,83
879,308	13,65
879,711	13,83
880,114	13,88
880,517	13,7
880,92	13,77
881,323	13,73
881,726	13,68
882,128	13,65
882,531	13,53
882,934	13,84
883,336	13,59
883,738	13,77
884,141	13,89
884,543	13,77
884,945	13,87
885,347	13,83
885,749	13,81
886,151	13,65
886,552	13,82
886,954	13,81
887,355	13,93
887,757	13,88
888,158	13,83
888,56	13,59
888,961	13,64
889,362	13,61
889,763	13,76
890,164	13,76
890,565	13,59
890,965	13,83
891,366	13,85
891,767	13,71
892,167	13,62
892,567	13,72
892,968	13,63
893,368	13,7
893,768	13,82
894,168	13,63
894,568	13,81
894,968	13,54
895,368	13,86
895,767	13,76
896,167	13,83
896,566	13,59
896,966	13,77
897,365	13,88
897,764	13,81
898,164	13,71
898,563	13,72
898,962	13,68
899,361	13,68
899,759	13,54
900,158	13,54
900,557	13,6
900,955	13,58
901,354	13,51
901,752	13,65
902,15	13,78
902,548	13,81
902,947	13,88
903,345	13,45
903,742	13,74
904,14	13,68
904,538	13,77
904,936	13,6
905,333	13,68
905,731	13,88
906,128	13,69
906,525	13,87
906,923	13,66
907,32	13,79
907,717	13,6
908,114	13,76
908,511	13,7
908,907	13,58
909,304	13,78
909,701	13,81
910,097	13,52
910,494	13,82
910,89	13,82
911,286	13,67
911,682	13,59
912,078	13,67
912,474	13,53
912,87	13,65
913,266	13,57
913,662	13,78
914,058	13,65
914,453	13,68
914,849	13,69
915,244	13,5
915,639	13,54
916,034	13,59
916,43	13,65
916,825	13,92
917,22	13,78
917,614	13,66
918,009	13,57
918,404	13,61
918,798	13,75
919,193	13,42
919,587	13,54
919,982	13,68
920,376	13,65
920,77	13,53
921,164	13,79
921,558	13,55
921,952	13,78
922,346	13,66
922,74	13,75
923,133	13,55
923,527	13,58
923,92	13,51
924,314	13,59
924,707	13,56
925,1	13,53
925,493	13,71
925,886	13,54
926,279	13,63
926,672	13,66
927,065	13,52
927,457	13,52
927,85	13,7
928,243	13,58
928,635	13,62
929,027	13,59
929,42	13,71
929,812	13,45
930,204	13,64
930,596	13,68
930,988	13,69
931,379	13,68
931,771	13,56
932,163	13,64
932,554	13,67
932,946	13,44
933,337	13,58
933,729	13,55
934,12	13,5
934,511	13,6
934,902	13,69
935,293	13,67
935,684	13,61
936,075	13,58
936,465	13,25
936,856	13,49
937,246	13,59
937,637	13,47
938,027	13,46
938,417	13,31
938,808	13,42
939,198	13,58
939,588	13,33
939,978	13,68
940,368	13,73
940,757	13,37
941,147	13,41
941,537	13,25
941,926	13,43
942,315	13,46
942,705	13,59
943,094	13,72
943,483	13,63
943,872	13,67
944,261	13,71
944,65	13,32
945,039	13,61
945,428	13,15
945,816	13,62
946,205	13,8
946,593	13,46
946,982	13,09
947,37	13,45
947,758	13,47
948,146	13,32
948,534	13,32
948,922	13,38
949,31	13,43
949,698	13,46
950,086	13,45
950,473	13,16
950,861	12,91
951,248	13,41
951,636	13,08
952,023	13,4
952,41	13,42
952,797	13,29
953,184	13,32
953,571	13,68
953,958	13,01
954,345	13,16
954,731	13,15
955,118	13,32
955,505	13,2
955,891	13,34
956,277	13,17
956,664	13,17
957,05	13,61
957,436	13,29
957,822	13,35
958,208	13,53
958,594	13,22
958,979	13,59
959,365	13,37
959,751	13,43
960,136	13,36
960,522	13,48
960,907	13,58
961,292	13,41
961,677	13,25
962,062	13,27
962,447	13,25
962,832	13,2
963,217	13,24
963,602	13,17
963,986	13,17
964,371	13,42
964,756	13,27
965,14	13,26
965,524	13,28
965,908	13,3
966,293	13,27
966,677	13,31
967,061	13,45
967,445	13,15
967,828	13,38
968,212	13,01
968,596	13,42
968,979	13,56
969,363	13,47
969,746	13,66
970,129	13,27
970,513	13,27
970,896	13,33
971,279	13,27
971,662	13,36
972,045	13,36
972,428	13,46
972,81	13,08
973,193	13,11
973,575	13,22
973,958	13,31
974,34	13,17
974,723	12,98
975,105	13,48
975,487	13,24
975,869	13,04
976,251	13,27
976,633	13,23
977,015	13,22
977,396	13,23
977,778	13,58
978,16	13,08
978,541	13,13
978,922	13,23
979,304	13,22
979,685	13,42
980,066	13,25
980,447	13,5
980,828	13,39
981,209	13,36
981,59	13,21
981,97	13,46
982,351	13,49
982,732	13,41
983,112	13,58
983,493	13,4
983,873	13,56
984,253	13,24
984,633	13,35
985,013	13,24
985,393	13,28
985,773	13,34
986,153	12,92
986,533	13,08
986,912	13,38
987,292	13,59
987,671	13,37
988,051	13,4
988,43	13,14
988,809	13,25
989,188	13,34
989,567	13,21
989,946	13,3
990,325	13,06
990,704	13,17
991,083	13,2
991,461	13,01
991,84	13,49
992,218	13,68
992,597	13,41
992,975	13,39
993,353	13,07
993,732	13,45
994,11	13,37
994,488	13,17
994,866	13,33
995,243	13,44
995,621	13,26
995,999	13,17
996,376	13,37
996,754	13,43
997,131	13,14
997,509	13,29
997,886	13,52
998,263	13,71
998,64	13,04
999,017	13,34
999,394	13,66
999,771	13,31
1000,148	13,21
1000,524	13,19
1000,901	13,09
1001,277	13,16
1001,654	13,29
1002,03	13,27
1002,406	13,04
1002,783	13,32
1003,159	13,29
1003,535	13,41
1003,911	13,22
1004,286	13,13
1004,662	13,18
1005,038	13,39
1005,414	13,16
1005,789	13,42
1006,164	13,34
1006,54	13,29
1006,915	13,42
1007,29	13,25
1007,665	13,43
1008,04	13,34
1008,415	13,49
1008,79	13,04
1009,165	13,1
1009,54	13,32
1009,914	13,36
1010,289	13,34
1010,663	13,47
1011,038	13,44
1011,412	13,31
1011,786	13,19
1012,16	13,57
1012,535	13,57
1012,909	13,31
1013,282	13,42
1013,656	13,45
1014,03	13,25
1014,404	13,4
1014,777	13,54
1015,151	13,25
1015,524	13,48
1015,897	13,4
1016,271	13,75
1016,644	13,47
1017,017	13,06
1017,39	13,46
1017,763	13,28
1018,136	13,16
1018,508	13,29
1018,881	13,39
1019,254	13,52
1019,626	13,18
1019,999	13,66
1020,371	13,16
1020,743	13,25
1021,116	13,54
1021,488	13,39
1021,86	13,19
1022,232	13,13
1022,604	13,07
1022,975	13,45
1023,347	13,21
1023,719	13,25
1024,09	13,27
1024,462	12,89
1024,833	12,99
1025,204	13,55
1025,576	13,04
1025,947	13,18
1026,318	13,17
1026,689	13,19
1027,06	13,65
1027,431	13,55
1027,801	13,71
1028,172	13,84
1028,543	13,73
1028,913	13,18
1029,284	13
1029,654	12,96
1030,024	13,14
1030,394	13,49
1030,764	13,16
1031,135	13,47
1031,504	13,34
1031,874	13,37
1032,244	13,13
1032,614	13,65
1032,983	13,33
1033,353	13,25
1033,722	13,32
1034,092	13,51
1034,461	13,16
1034,83	13,58
1035,2	13,61
1035,569	13,3
1035,938	13,36
1036,307	13,61
1036,675	13,56
1037,044	13,75
1037,413	13,11
1037,781	13,5
1038,15	13,43
1038,518	13,22
1038,887	13,53
1039,255	13,58
1039,623	13,18
1039,991	13,68
1040,359	13,23
1040,727	13,56
1041,095	13,32
1041,463	13,33
1041,831	13,09
1042,198	13,58
1042,566	13,48
1042,933	12,95
1043,301	13,43
1043,668	13,5
1044,035	12,81
1044,402	13,31
1044,77	13,59
1045,137	13,57
1045,503	13,43
1045,87	13,15
1046,237	13,66
1046,604	12,97
1046,97	13,32
1047,337	13,41
1047,703	13,18
1048,07	13,87
1048,436	13,56
1048,802	12,92
1049,168	13,37
1049,534	13,21
1049,9	13,49
1050,266	13,42
1050,632	13,79
1050,998	13,3
1051,364	13,08
1051,729	13,29
1052,095	13,66
1052,46	12,94
1052,825	12,75
1053,191	13,62
1053,556	14,23
1053,921	13,56
1054,286	13,38
1054,651	13,16
1055,016	13,69
1055,381	13,08
1055,745	13,17
1056,11	12,98
1056,475	13,32
1056,839	13,15
1057,203	13,42
1057,568	12,79
1057,932	13,17
1058,296	13,53
1058,66	13,59
1059,024	13,36
1059,388	13,38
1059,752	12,97
1060,116	13,81
1060,48	13,23
1060,843	13,42
1061,207	13,14
1061,57	13,55
1061,934	13,59
1062,297	13,2
1062,66	13,3
1063,023	13,47
1063,386	12,67
1063,749	14,24
1064,112	12,78
1064,475	13,23
1064,838	13,31
1065,201	12,83
1065,563	13,64
1065,926	13,71
1066,288	12,9
1066,651	13,66
1067,013	13,41
1067,375	13,67
1067,737	13,74
1068,099	13,55
1068,461	14
1068,823	13,97
1069,185	13,61
1069,547	13,73
1069,909	12,99
1070,27	13,53
1070,632	12,79
1070,993	13,9
1071,355	13,15
1071,716	13,76
1072,077	13,27
1072,438	13,83
1072,799	14
1073,16	13,27
1073,521	12,78
1073,882	13,65
1074,243	13,4
1074,603	13,22
1074,964	13,12
1075,325	12,96
1075,685	14,18
1076,045	13,77
1076,406	14,08
1076,766	13,43
1077,126	12,98
1077,486	13,57
1077,846	14,59
1078,206	12,78
1078,566	13,88
1078,925	14,37
1079,285	13,31
1079,645	14,06
1080,004	13,77
1080,364	14,21
1080,723	14,22
1081,082	13,62
1081,442	13,69
1081,801	12,97
1082,16	13,24
1082,519	13,29
1082,878	14,1
1083,237	12,98
1083,595	13,62
1083,954	14,51
1084,313	13,24
1084,671	12,99
1085,03	13,03
1085,388	13,57
1085,746	13,36
1086,104	12,45
1086,463	13
1086,821	15,06
1087,179	14,2
1087,537	14,13
1087,894	12,69
1088,252	13,93
1088,61	14,13
1088,967	14,44
1089,325	13,81
1089,682	13,24
1090,04	13,13
1090,397	13,5
1090,754	12,67
1091,111	13,86
1091,469	12,38
1091,826	13,78
1092,182	13,82
1092,539	14,44
1092,896	14,28
1093,253	13,57
1093,609	14,41
1093,966	12,93
1094,322	13,39
1094,679	12,9
1095,035	13,2
1095,391	13,84
1095,748	13,49
1096,104	13,46
1096,46	13,63
1096,816	14,64
1097,171	14,27
1097,527	14,08
1097,883	14,63
1098,239	13,02
1098,594	14
1098,95	14,07
1099,305	13,43
1099,66	13,72
1100,016	13,27
1100,371	14,78
1100,726	13,68
1101,081	14,24
1101,436	13,13
1101,791	13,76
1102,146	13,58
1102,5	13,31
1102,855	13,89
1103,21	12,72
1103,564	13,43
1103,918	14,83
1104,273	13,48
1104,627	12,84
1104,981	12,98
1105,335	14,75
1105,69	13,52
1106,043	13,87
1106,397	15
1106,751	13,98
1107,105	13,95
1107,459	13,92
1107,812	13,6
1108,166	14,62
1108,519	13,33
1108,873	13,7
1109,226	14,48
1109,579	12,12
1109,932	12,92
1110,285	12,67
1110,638	12,7
1110,991	14,29
1111,344	15,79
1111,697	13,5
1112,05	15,2
1112,402	12,51
1112,755	14,36
1113,107	13,62
1113,46	13,79
1113,812	15,7
1114,164	15,5
1114,517	14,25
1114,869	10,11
1115,221	8,85
1115,573	17,01
1115,924	15,02
