Data from E_2_Relative__0__00090.txt Node

Date: Tue Jan 30 10:03:39 CET 2024
User: diatiterra
Spectrometer: HDX00911
Trigger mode: 0
Integration Time (sec): 6,000000E-3
Scans to average: 2
Nonlinearity correction enabled: false
Boxcar width: 0
Storing dark spectrum: false
XAxis mode: Wavelengths
Number of Pixels in Spectrum: 2068
>>>>>Begin Spectral Data<<<<<
194,468	91,71
195,025	93,55
195,581	89,39
196,138	76,43
196,694	76,62
197,251	68,28
197,807	72,5
198,363	76,64
198,919	68,94
199,474	78,39
200,03	68,5
200,586	74,01
201,141	73,53
201,696	67,23
202,251	76,62
202,806	68,94
203,361	74,8
203,916	71,78
204,471	74,75
205,025	65,27
205,58	69,59
206,134	66,14
206,688	75,97
207,242	78,83
207,796	70,34
208,35	79,45
208,904	74,19
209,457	79,07
210,011	74,24
210,564	75,68
211,117	74,04
211,67	65,99
212,223	74,9
212,776	70,34
213,329	68,35
213,881	80,09
214,434	69,67
214,986	77,68
215,538	70,47
216,09	74,3
216,642	73,55
217,194	74,16
217,746	74,5
218,297	71,43
218,849	75,67
219,4	67,97
219,951	79,2
220,502	77,04
221,053	73,31
221,604	75,59
222,155	77,97
222,705	77,02
223,256	76,78
223,806	62,5
224,356	78,92
224,906	76,21
225,456	65,13
226,006	69,64
226,556	73,45
227,106	68,46
227,655	73,95
228,204	71,95
228,754	81,86
229,303	79,73
229,852	73,8
230,401	79,37
230,949	65,25
231,498	77,23
232,047	79,51
232,595	83,53
233,143	84,21
233,691	70,32
234,239	75,19
234,787	71,75
235,335	75,76
235,883	81,53
236,43	76,69
236,978	74,78
237,525	73,62
238,072	71,81
238,619	68,16
239,166	68,1
239,713	64,98
240,26	69,76
240,806	72,41
241,353	77,78
241,899	67,08
242,445	73,64
242,991	74,18
243,537	75,32
244,083	78,28
244,629	70,93
245,174	78,3
245,72	74,9
246,265	75,11
246,81	72,89
247,355	72,26
247,9	81,67
248,445	70,63
248,99	62,98
249,534	67,55
250,079	78,7
250,623	75,22
251,168	82,04
251,712	62,45
252,256	69,01
252,8	74,34
253,343	70,85
253,887	73,16
254,43	75,19
254,974	72
255,517	79,33
256,06	70,04
256,603	70,78
257,146	67,31
257,689	78,81
258,232	76,92
258,774	70,04
259,317	77,16
259,859	74,76
260,401	80,37
260,943	73,03
261,485	75
262,027	68,94
262,569	72,69
263,11	70,35
263,652	75,66
264,193	85,58
264,734	89,35
265,275	73,82
265,816	67,09
266,357	74,27
266,898	81,62
267,438	76,6
267,979	74,14
268,519	73,56
269,059	63,64
269,6	72,57
270,14	71,12
270,68	75,82
271,219	80,43
271,759	69
272,298	71,2
272,838	68,13
273,377	82,43
273,916	75,88
274,455	70
274,994	80,65
275,533	71,48
276,072	78,72
276,61	80,26
277,149	70
277,687	75,85
278,225	68,31
278,763	71,37
279,301	75,92
279,839	78,28
280,377	64,9
280,914	68,52
281,452	65,85
281,989	75,62
282,526	70,83
283,064	71,65
283,601	73,33
284,137	69,33
284,674	74,06
285,211	79,48
285,747	70,08
286,284	81,9
286,82	69,35
287,356	68,89
287,892	66,26
288,428	70,39
288,964	71,37
289,5	71,63
290,035	74,27
290,571	68,48
291,106	81,9
291,641	79,48
292,176	74,8
292,711	66,38
293,246	69,35
293,781	63,04
294,315	72,56
294,85	64,94
295,384	71,7
295,918	74,4
296,453	72,06
296,987	67,8
297,52	62,44
298,054	68,78
298,588	65,6
299,121	68,47
299,655	66,98
300,188	74,15
300,721	61,61
301,254	66,37
301,787	71,93
302,32	69,23
302,853	80,85
303,385	65,1
303,918	62,67
304,45	67,69
304,982	66,4
305,514	67,48
306,046	71,24
306,578	70,95
307,11	66,29
307,641	68,49
308,173	71,3
308,704	80,08
309,236	84,78
309,767	66,25
310,298	69,2
310,829	75,97
311,359	78,76
311,89	66,92
312,421	63,27
312,951	70,29
313,481	73,93
314,012	72,48
314,542	77,48
315,072	71,24
315,601	70,97
316,131	68,67
316,661	72,97
317,19	62,86
317,72	78,39
318,249	72,48
318,778	74,9
319,307	71,77
319,836	68
320,365	73,19
320,893	73,62
321,422	77,58
321,95	75,22
322,479	67,07
323,007	69,32
323,535	75,09
324,063	73,54
324,591	73,56
325,118	65,8
325,646	73,28
326,173	75,45
326,701	72,11
327,228	78,37
327,755	79,05
328,282	77,27
328,809	75,88
329,336	75,74
329,862	75,55
330,389	70,93
330,915	72,48
331,441	81,43
331,968	64,54
332,494	75,11
333,02	69,04
333,545	65,59
334,071	77,73
334,597	66,94
335,122	76,13
335,648	76,4
336,173	76,27
336,698	69,96
337,223	71,36
337,748	70,98
338,272	63,95
338,797	72,51
339,322	73,08
339,846	68,27
340,37	75,55
340,894	71,31
341,419	72,18
341,942	66,28
342,466	64,16
342,99	65,4
343,514	75,3
344,037	66,92
344,56	66,93
345,084	71,19
345,607	64,91
346,13	66,53
346,653	62,36
347,175	70,34
347,698	71,79
348,221	69,64
348,743	74,72
349,265	66,12
349,787	70,03
350,309	58,03
350,831	61,97
351,353	75,92
351,875	58,97
352,397	55,93
352,918	68,92
353,439	68,53
353,961	66,08
354,482	59,4
355,003	54,89
355,524	65,2
356,044	63,64
356,565	57,64
357,086	58,44
357,606	59,33
358,126	57,19
358,646	57,24
359,167	58,8
359,687	58,09
360,206	65,5
360,726	53
361,246	62,54
361,765	55,34
362,285	59,73
362,804	53,05
363,323	55,56
363,842	60,07
364,361	63,47
364,88	52,85
365,398	56,19
365,917	51,48
366,435	55,37
366,954	54,41
367,472	50,15
367,99	46,18
368,508	58,48
369,026	57,22
369,544	54,78
370,061	48,79
370,579	53,31
371,096	51,05
371,613	47,45
372,131	51,17
372,648	55,08
373,165	54,88
373,681	50
374,198	51,9
374,715	41,24
375,231	49,88
375,747	50,12
376,264	48,54
376,78	48,34
377,296	46,43
377,812	45,64
378,327	50,94
378,843	49,88
379,359	41,19
379,874	44,07
380,389	41,55
380,905	44,37
381,42	40,41
381,935	48,06
382,449	41,21
382,964	40,26
383,479	41,75
383,993	46
384,508	43,27
385,022	42,18
385,536	39,59
386,05	42,12
386,564	35,96
387,078	40,84
387,592	39,84
388,105	41,56
388,619	38,93
389,132	39,93
389,645	33,79
390,158	37,95
390,671	35,54
391,184	38,39
391,697	36,98
392,21	35,72
392,722	37,45
393,235	34,48
393,747	34,97
394,259	34,52
394,771	36,52
395,283	32,84
395,795	36,27
396,307	35,36
396,818	33,38
397,33	34,03
397,841	31,07
398,353	34,32
398,864	30,87
399,375	28,64
399,886	27,49
400,397	31,82
400,907	28,65
401,418	26,78
401,928	29,5
402,439	26,92
402,949	26,78
403,459	26,84
403,969	26,25
404,479	26,54
404,989	26,76
405,498	22,69
406,008	24,7
406,517	21,61
407,027	22,16
407,536	21,63
408,045	19,75
408,554	20,1
409,063	18,94
409,572	19,8
410,08	18,14
410,589	16,77
411,097	16,26
411,606	16,73
412,114	14,72
412,622	15,18
413,13	15,72
413,638	15,27
414,145	14,36
414,653	13,49
415,16	14,08
415,668	13,93
416,175	13,07
416,682	13,29
417,189	11,36
417,696	12,29
418,203	12,16
418,71	12,19
419,216	11,13
419,723	11,06
420,229	11,04
420,735	10,82
421,242	11,22
421,748	9,63
422,254	11,4
422,759	10,07
423,265	9,76
423,771	9,32
424,276	9,96
424,781	9,12
425,287	9,79
425,792	9,41
426,297	9,45
426,802	8,86
427,306	8,91
427,811	8,9
428,316	9,08
428,82	8,34
429,324	9,14
429,829	9,7
430,333	8,91
430,837	9,88
431,34	8,88
431,844	8,46
432,348	9,23
432,851	8,86
433,355	8,02
433,858	9,08
434,361	8,11
434,864	9,01
435,367	9,22
435,87	7,7
436,373	8,19
436,876	9,12
437,378	8,25
437,88	8,33
438,383	8,65
438,885	8,06
439,387	7,59
439,889	8,08
440,391	8,52
440,892	8,11
441,394	8,62
441,896	7,95
442,397	8,09
442,898	7,75
443,399	7,82
443,9	7,79
444,401	8,02
444,902	7,18
445,403	8,19
445,903	8,59
446,404	7,88
446,904	7,84
447,405	8,22
447,905	7,75
448,405	8,32
448,905	7,84
449,404	7,47
449,904	7,62
450,404	7,84
450,903	8,05
451,403	7,66
451,902	7,9
452,401	7,95
452,9	7,15
453,399	8,18
453,898	7,39
454,396	7,75
454,895	7,49
455,393	7,8
455,892	7,79
456,39	7,8
456,888	8,11
457,386	8,26
457,884	7,77
458,382	7,78
458,879	8,07
459,377	7,76
459,874	7,72
460,372	7,78
460,869	8,02
461,366	7,41
461,863	7,67
462,36	7,55
462,857	7,6
463,353	7,79
463,85	7,65
464,346	7,26
464,843	7,85
465,339	7,96
465,835	7,45
466,331	7,3
466,827	7,42
467,323	7,02
467,818	7,65
468,314	7,96
468,809	7,5
469,305	7,86
469,8	7,91
470,295	7,68
470,79	7,31
471,285	7,83
471,78	7,41
472,274	7,74
472,769	7,43
473,263	7,68
473,758	8
474,252	7,23
474,746	7,73
475,24	7,68
475,734	7,41
476,228	7,57
476,721	7,46
477,215	7,58
477,708	7,51
478,202	7,69
478,695	7,65
479,188	7,88
479,681	7,38
480,174	7,02
480,667	7,76
481,159	7,69
481,652	7,44
482,144	7,57
482,637	7,19
483,129	7,46
483,621	7,7
484,113	7,18
484,605	7,72
485,097	7,87
485,588	7,42
486,08	7,85
486,571	7,82
487,063	7,9
487,554	7,77
488,045	7,83
488,536	7,67
489,027	7,83
489,518	7,63
490,008	7,49
490,499	7,85
490,989	7,82
491,48	7,83
491,97	7,97
492,46	7,57
492,95	7,85
493,44	7,74
493,93	7,72
494,419	7,69
494,909	7,65
495,398	8,18
495,888	8,32
496,377	8,26
496,866	8,15
497,355	8,41
497,844	7,95
498,333	8,26
498,821	8,21
499,31	8,39
499,798	8,81
500,287	8,64
500,775	8,48
501,263	8,7
501,751	8,8
502,239	9,19
502,727	9,16
503,215	9,35
503,702	9,12
504,19	9,26
504,677	9,38
505,164	9,42
505,651	9,7
506,139	10,19
506,625	10,1
507,112	10,56
507,599	10,58
508,086	10,55
508,572	10,93
509,058	10,82
509,545	11,27
510,031	11,45
510,517	11,78
511,003	11,87
511,489	12,45
511,974	12,52
512,46	13,02
512,946	12,93
513,431	12,88
513,916	13,38
514,401	13,9
514,887	14,28
515,371	14,15
515,856	15,01
516,341	15,27
516,826	15,53
517,31	15,98
517,795	16,23
518,279	16,07
518,763	16,83
519,247	16,79
519,731	17,42
520,215	17,79
520,699	18,02
521,182	18,39
521,666	18,6
522,149	19,38
522,633	19,28
523,116	19,72
523,599	20,82
524,082	20,94
524,565	21,53
525,048	21,83
525,53	21,81
526,013	22,56
526,495	22,79
526,978	22,73
527,46	23,01
527,942	24,4
528,424	24,34
528,906	24,12
529,388	24,47
529,87	24,44
530,351	24,96
530,833	25,2
531,314	25,6
531,795	25,8
532,277	26,12
532,758	26,01
533,238	26,58
533,719	26,61
534,2	26,78
534,681	27,32
535,161	27,48
535,642	26,72
536,122	27,69
536,602	27,32
537,082	26,85
537,562	27,31
538,042	27,58
538,522	27,4
539,001	27,69
539,481	27,39
539,96	28,07
540,44	27,54
540,919	28,13
541,398	27,82
541,877	28,45
542,356	28,63
542,835	27,98
543,313	28,27
543,792	28,55
544,27	29,34
544,749	28,83
545,227	28,09
545,705	28,2
546,183	28,56
546,661	29,32
547,139	28,76
547,616	28,54
548,094	29,18
548,571	29,12
549,049	29,39
549,526	29,46
550,003	29,02
550,48	29,54
550,957	29,62
551,434	29,24
551,911	29,54
552,387	29,44
552,864	29,18
553,34	29,08
553,817	29,25
554,293	29,8
554,769	29,24
555,245	29,56
555,721	28,89
556,197	28,92
556,672	28,8
557,148	29
557,623	28,78
558,099	28,88
558,574	29,41
559,049	28,55
559,524	28,83
559,999	28,56
560,474	28,68
560,948	28,73
561,423	28,16
561,897	27,97
562,372	28,07
562,846	28,37
563,32	27,89
563,794	27,45
564,268	27,71
564,742	27,55
565,216	26,81
565,69	26,86
566,163	26,52
566,636	26,35
567,11	26,45
567,583	26,35
568,056	25,56
568,529	25,76
569,002	25,45
569,475	25,13
569,947	24,9
570,42	24,76
570,892	24,44
571,365	24,03
571,837	23,94
572,309	24,02
572,781	23,7
573,253	23,01
573,725	23,16
574,197	22,67
574,668	22,54
575,14	22,24
575,611	22,29
576,082	21,98
576,554	22,03
577,025	21,53
577,496	21,74
577,967	21,47
578,437	21,7
578,908	20,65
579,379	20,85
579,849	20,62
580,319	20,76
580,79	20,37
581,26	20,09
581,73	20,07
582,2	20,03
582,669	19,77
583,139	19,66
583,609	19,64
584,078	19,32
584,548	19,17
585,017	19,71
585,486	18,81
585,955	19,01
586,424	18,78
586,893	18,75
587,362	18,38
587,83	18,37
588,299	18,29
588,767	18,14
589,236	18,38
589,704	17,99
590,172	17,81
590,64	18,08
591,108	17,91
591,576	18,16
592,043	17,64
592,511	17,62
592,978	17,58
593,446	17,52
593,913	17,55
594,38	17,6
594,847	17,32
595,314	17,22
595,781	17,57
596,248	17,24
596,715	17,12
597,181	17,07
597,647	17,11
598,114	17,32
598,58	17,38
599,046	17,27
599,512	17
599,978	17,08
600,444	16,99
600,91	16,75
601,375	16,81
601,841	16,77
602,306	16,65
602,771	16,49
603,236	16,59
603,702	16,44
604,167	16,09
604,631	16,46
605,096	16,36
605,561	16,13
606,025	16,07
606,49	15,88
606,954	15,89
607,418	15,79
607,882	15,42
608,347	15,87
608,81	15,6
609,274	15,42
609,738	15,4
610,202	15,04
610,665	15,09
611,128	14,88
611,592	15,06
612,055	14,64
612,518	14,79
612,981	14,7
613,444	14,49
613,907	14,08
614,369	14,19
614,832	14,1
615,294	13,84
615,757	14,03
616,219	13,91
616,681	13,77
617,143	13,94
617,605	13,3
618,067	13,46
618,529	13,2
618,99	13,1
619,452	13,29
619,913	13,11
620,375	13,12
620,836	12,81
621,297	13,18
621,758	12,75
622,219	12,64
622,68	12,94
623,14	12,64
623,601	12,76
624,061	12,7
624,522	12,54
624,982	12,7
625,442	12,48
625,902	12,37
626,362	12,76
626,822	12,57
627,282	12,67
627,742	12,5
628,201	12,31
628,661	12,34
629,12	12,18
629,579	12,1
630,038	12,31
630,497	12,23
630,956	12,49
631,415	12,18
631,874	12,16
632,332	12,35
632,791	11,98
633,249	12,21
633,708	12,05
634,166	11,82
634,624	11,98
635,082	11,8
635,54	11,62
635,998	11,73
636,455	11,58
636,913	11,53
637,37	11,56
637,828	11,27
638,285	11,41
638,742	11,49
639,199	10,95
639,656	10,79
640,113	11,07
640,57	10,92
641,027	10,57
641,483	10,57
641,94	10,36
642,396	10,31
642,852	10,36
643,309	10,27
643,765	9,94
644,221	9,83
644,676	9,64
645,132	9,73
645,588	9,65
646,043	9,48
646,499	9,37
646,954	9,29
647,409	9,18
647,864	9,01
648,319	8,87
648,774	8,73
649,229	8,72
649,684	8,84
650,139	8,55
650,593	8,62
651,047	8,56
651,502	8,54
651,956	8,38
652,41	8,39
652,864	8,4
653,318	8,13
653,772	8,35
654,225	8,27
654,679	8,07
655,133	8,31
655,586	8,17
656,039	7,91
656,492	7,95
656,946	8,12
657,399	7,74
657,851	7,78
658,304	7,93
658,757	7,57
659,209	7,57
659,662	7,38
660,114	7,55
660,567	7,34
661,019	7,53
661,471	7,37
661,923	7,34
662,375	7,2
662,826	7,11
663,278	7,06
663,73	7,23
664,181	7,06
664,632	7,13
665,084	7,17
665,535	7,02
665,986	6,98
666,437	7,05
666,888	7,08
667,338	6,93
667,789	7,1
668,24	7
668,69	7,03
669,14	7,04
669,591	7,19
670,041	7,15
670,491	7,1
670,941	7,29
671,391	7,19
671,84	7,41
672,29	7,35
672,74	7,38
673,189	7,62
673,638	7,54
674,088	7,56
674,537	7,81
674,986	7,75
675,435	7,82
675,883	7,84
676,332	8,08
676,781	8,03
677,229	8,25
677,678	8,4
678,126	8,37
678,574	8,6
679,022	8,62
679,47	8,75
679,918	8,73
680,366	9,05
680,814	9,08
681,261	9,2
681,709	9,36
682,156	9,21
682,604	9,45
683,051	9,52
683,498	9,83
683,945	9,84
684,392	9,96
684,839	9,9
685,286	9,95
685,732	10,35
686,179	10,37
686,625	10,4
687,071	10,48
687,518	10,73
687,964	10,96
688,41	10,96
688,856	11,34
689,301	11,7
689,747	11,59
690,193	12,09
690,638	12,41
691,084	12,67
691,529	13,13
691,974	13,52
692,419	13,95
692,864	14,46
693,309	15,01
693,754	15,58
694,199	16,1
694,643	16,48
695,088	17,14
695,532	18,09
695,977	18,39
696,421	19,27
696,865	20,06
697,309	20,57
697,753	21,28
698,197	22,19
698,64	22,73
699,084	23,61
699,527	24,72
699,971	25,32
700,414	26,15
700,857	26,44
701,3	27,17
701,743	28,05
702,186	28,93
702,629	29,41
703,072	30,47
703,515	31
703,957	31,49
704,399	32,42
704,842	33,31
705,284	33,73
705,726	34,4
706,168	35,64
706,61	35,78
707,052	36,43
707,494	36,96
707,935	38,05
708,377	38,6
708,818	38,74
709,26	39,61
709,701	40,43
710,142	41,11
710,583	41,85
711,024	42,37
711,465	43,03
711,905	43,99
712,346	44,37
712,787	44,66
713,227	45,76
713,667	45,69
714,108	46,3
714,548	47,16
714,988	48,13
715,428	48,4
715,868	48,62
716,307	49,23
716,747	49,49
717,186	50,59
717,626	51,06
718,065	51,48
718,504	51,97
718,944	52,14
719,383	52,56
719,822	53,71
720,261	53,75
720,699	54,55
721,138	54,8
721,576	55,39
722,015	55,56
722,453	55,77
722,892	56,87
723,33	56,75
723,768	56,87
724,206	58
724,644	57,89
725,081	58,21
725,519	58,66
725,957	59,08
726,394	59,16
726,832	59,43
727,269	59,99
727,706	60,24
728,143	61,15
728,58	60,63
729,017	61,57
729,454	61,03
729,89	61,29
730,327	62,19
730,764	61,94
731,2	62,85
731,636	62,42
732,072	62,81
732,509	62,72
732,945	63,53
733,38	63,22
733,816	63,72
734,252	63,96
734,688	64,08
735,123	64,24
735,559	64,01
735,994	64,04
736,429	63,99
736,864	64,66
737,299	65,06
737,734	64,47
738,169	65,1
738,604	65,08
739,038	64,91
739,473	65,62
739,907	65,85
740,342	65,35
740,776	65,25
741,21	65,02
741,644	65,84
742,078	65,38
742,512	66,11
742,946	66,23
743,379	66,09
743,813	66,49
744,246	66,27
744,68	66,24
745,113	66,25
745,546	65,88
745,979	66,01
746,412	66,3
746,845	66,26
747,278	66,37
747,711	66,62
748,143	66,58
748,576	66,23
749,008	65,97
749,441	65,94
749,873	65,99
750,305	66,08
750,737	66,38
751,169	66,08
751,601	66,26
752,032	65,97
752,464	65,82
752,896	66,17
753,327	66,67
753,758	66,41
754,19	65,98
754,621	66,2
755,052	65,91
755,483	66,12
755,914	65,34
756,344	65,76
756,775	65,91
757,206	65,68
757,636	65,62
758,066	65,48
758,497	65,94
758,927	65,66
759,357	65,85
759,787	66,03
760,217	65,94
760,647	64,95
761,076	65,35
761,506	65,44
761,935	65,22
762,365	65,26
762,794	65,39
763,223	65,3
763,653	65,59
764,082	65,03
764,51	64,95
764,939	65,56
765,368	65,54
765,797	65,9
766,225	65
766,654	65,43
767,082	65,06
767,51	65,6
767,938	64,79
768,367	65,44
768,795	65,21
769,222	65,01
769,65	64,77
770,078	65,12
770,505	64,71
770,933	64,32
771,36	64,39
771,788	64,79
772,215	65,34
772,642	64,83
773,069	64,36
773,496	65,2
773,923	65,02
774,349	64,7
774,776	65,01
775,203	64,84
775,629	64,82
776,055	64,51
776,482	64,4
776,908	64,76
777,334	64,32
777,76	64,37
778,186	64,63
778,611	64,84
779,037	64,24
779,463	64,86
779,888	64,45
780,314	63,99
780,739	64,33
781,164	64,18
781,589	64,15
782,014	64,12
782,439	64,16
782,864	64,41
783,289	64,74
783,713	63,84
784,138	64,67
784,562	64,39
784,987	64,22
785,411	63,67
785,835	64,65
786,259	64,08
786,683	64,33
787,107	64,57
787,531	64,5
787,954	64,32
788,378	64,47
788,802	63,9
789,225	63,87
789,648	64,12
790,071	64,3
790,495	64,39
790,918	64,56
791,34	64,07
791,763	63,98
792,186	63,97
792,609	64,15
793,031	64,14
793,454	64,28
793,876	64,19
794,298	64,62
794,721	64,27
795,143	63,95
795,565	64,04
795,986	63,84
796,408	64,25
796,83	64,5
797,252	63,99
797,673	63,48
798,094	64,1
798,516	64,26
798,937	64,17
799,358	64,15
799,779	64,25
800,2	64,07
800,621	64,07
801,042	64,48
801,462	63,82
801,883	63,74
802,303	63,59
802,724	64,3
803,144	63,94
803,564	64,06
803,984	63,9
804,404	63,55
804,824	64,17
805,244	64,18
805,664	63,74
806,084	63,57
806,503	63,51
806,923	63,77
807,342	64,01
807,761	63,74
808,18	64,41
808,599	64,17
809,018	64
809,437	64,06
809,856	63,97
810,275	63,9
810,693	63,82
811,112	63,93
811,53	63,69
811,949	64,13
812,367	64,09
812,785	63,38
813,203	63,49
813,621	64,06
814,039	64,25
814,457	63,98
814,874	63,44
815,292	63,66
815,709	62,96
816,127	63,27
816,544	63,94
816,961	63,49
817,378	63,82
817,795	63,3
818,212	63,89
818,629	63,65
819,046	63,24
819,462	63,94
819,879	63,5
820,295	63,83
820,712	63,72
821,128	63,7
821,544	63,53
821,96	63,48
822,376	63,73
822,792	63,61
823,208	63,64
823,624	63,39
824,039	63,91
824,455	63,7
824,87	63,21
825,286	63,64
825,701	62,87
826,116	63,75
826,531	63,26
826,946	63,52
827,361	63,47
827,776	63,22
828,19	63,33
828,605	63,1
829,02	63,18
829,434	62,99
829,848	63,57
830,263	63,28
830,677	63,86
831,091	62,94
831,505	63,23
831,919	63,61
832,332	63,33
832,746	63,53
833,16	63,44
833,573	63,08
833,987	63,53
834,4	63,22
834,813	63,77
835,226	63,56
835,639	63,85
836,052	63,37
836,465	63,26
836,878	63,34
837,29	63,28
837,703	63,42
838,116	63,6
838,528	63,27
838,94	62,9
839,352	63,86
839,765	63,42
840,177	63,28
840,589	62,99
841	63,35
841,412	63,49
841,824	63,89
842,235	63,26
842,647	63,06
843,058	63,33
843,47	63,84
843,881	63,66
844,292	62,93
844,703	63,09
845,114	63,13
845,525	63,27
845,935	63,19
846,346	63,14
846,757	63,07
847,167	63,7
847,577	63,21
847,988	63,83
848,398	62,69
848,808	63,35
849,218	63,33
849,628	63,49
850,038	63,26
850,448	63,19
850,857	63,45
851,267	63,78
851,676	63,2
852,086	63,4
852,495	63,45
852,904	63,71
853,313	63,19
853,722	62,74
854,131	63,13
854,54	63,64
854,949	63,28
855,357	63,79
855,766	63,52
856,174	63,54
856,583	63,72
856,991	62,79
857,399	63,53
857,807	63,53
858,215	63,03
858,623	62,92
859,031	63,22
859,439	63,16
859,846	63,86
860,254	63,22
860,661	63,24
861,069	63,49
861,476	63,35
861,883	62,95
862,29	63,86
862,697	63,32
863,104	63,73
863,511	63,47
863,918	63,54
864,325	63,46
864,731	63,11
865,138	63,41
865,544	63,37
865,95	63,3
866,357	63,18
866,763	62,84
867,169	63,37
867,575	63,17
867,98	62,9
868,386	63,15
868,792	63,55
869,197	63,11
869,603	63,71
870,008	63,69
870,414	63,68
870,819	63,76
871,224	62,89
871,629	63,09
872,034	63,31
872,439	63,19
872,844	62,83
873,248	63,47
873,653	63,77
874,057	62,73
874,462	63,23
874,866	63,3
875,27	63,16
875,674	63,29
876,078	63,1
876,482	62,88
876,886	63,53
877,29	62,91
877,694	63,49
878,097	62,83
878,501	63,35
878,904	62,81
879,308	63,31
879,711	63,03
880,114	63,38
880,517	63,47
880,92	63,03
881,323	63,31
881,726	63,55
882,128	62,99
882,531	63,21
882,934	63,48
883,336	63,08
883,738	63,58
884,141	63,63
884,543	63,5
884,945	62,91
885,347	63,75
885,749	63,14
886,151	63,33
886,552	62,87
886,954	62,54
887,355	63,11
887,757	62,97
888,158	63,67
888,56	63,46
888,961	63,02
889,362	63,02
889,763	63,02
890,164	62,91
890,565	63,16
890,965	63,48
891,366	63,18
891,767	63,18
892,167	62,65
892,567	63,14
892,968	63,01
893,368	63,44
893,768	62,96
894,168	62,91
894,568	62,8
894,968	63,49
895,368	62,98
895,767	62,96
896,167	63,34
896,566	63,42
896,966	62,81
897,365	62,79
897,764	63,51
898,164	62,47
898,563	63,48
898,962	62,84
899,361	63,17
899,759	63,19
900,158	63,43
900,557	63,08
900,955	62,74
901,354	63,11
901,752	63,43
902,15	63,82
902,548	62,74
902,947	62,89
903,345	63,72
903,742	63,06
904,14	62,72
904,538	63,22
904,936	63,22
905,333	62,9
905,731	63,33
906,128	63,14
906,525	63,35
906,923	63,05
907,32	63,08
907,717	63,24
908,114	63,35
908,511	62,9
908,907	62,95
909,304	62,96
909,701	62,86
910,097	63,19
910,494	62,84
910,89	63,17
911,286	63,12
911,682	63,26
912,078	63,52
912,474	63,49
912,87	62,93
913,266	63,42
913,662	63,01
914,058	63,49
914,453	63,05
914,849	63,35
915,244	63,74
915,639	63,46
916,034	63,74
916,43	62,61
916,825	63,04
917,22	62,74
917,614	63,85
918,009	62,9
918,404	63,74
918,798	63,03
919,193	63,17
919,587	63,09
919,982	63,16
920,376	62,71
920,77	63,46
921,164	62,93
921,558	62,97
921,952	62,84
922,346	62,77
922,74	63,27
923,133	62,95
923,527	62,77
923,92	63,26
924,314	62,76
924,707	63,06
925,1	62,97
925,493	63,39
925,886	62,96
926,279	62,34
926,672	63,17
927,065	63,54
927,457	63,1
927,85	62,67
928,243	63,51
928,635	62,23
929,027	63,04
929,42	63,51
929,812	62,83
930,204	62,8
930,596	62,7
930,988	62,94
931,379	62,74
931,771	63,37
932,163	63,06
932,554	62,54
932,946	62,66
933,337	62,51
933,729	62,24
934,12	62,82
934,511	62,52
934,902	63,24
935,293	62,36
935,684	62,97
936,075	63,01
936,465	63,43
936,856	62,72
937,246	63,25
937,637	63,31
938,027	63,1
938,417	61,74
938,808	62,64
939,198	63,24
939,588	62,54
939,978	63,46
940,368	62,55
940,757	62,97
941,147	62,7
941,537	62,17
941,926	62,71
942,315	61,96
942,705	62,87
943,094	61,96
943,483	63,08
943,872	62,93
944,261	62,13
944,65	61,24
945,039	62,07
945,428	61,95
945,816	61,84
946,205	61,81
946,593	62,72
946,982	61,32
947,37	63,73
947,758	63,04
948,146	62,17
948,534	62,89
948,922	63,17
949,31	61,98
949,698	61,87
950,086	61,01
950,473	61,4
950,861	62,29
951,248	61,16
951,636	61,7
952,023	61,57
952,41	61,27
952,797	61
953,184	61,59
953,571	62,14
953,958	61,15
954,345	61,64
954,731	60,8
955,118	61,22
955,505	60,6
955,891	60,76
956,277	61,34
956,664	61,02
957,05	61,08
957,436	61,08
957,822	60,99
958,208	60,46
958,594	61,5
958,979	60,18
959,365	60,97
959,751	60,65
960,136	60,25
960,522	61,12
960,907	61,06
961,292	61,73
961,677	59,78
962,062	60,38
962,447	60,96
962,832	59,9
963,217	61,27
963,602	60,6
963,986	60,53
964,371	60,54
964,756	60,04
965,14	60,47
965,524	60,58
965,908	61,05
966,293	60,21
966,677	60,35
967,061	61,25
967,445	61,05
967,828	60,77
968,212	61,43
968,596	60,75
968,979	60,35
969,363	61,1
969,746	61,05
970,129	60,36
970,513	61
970,896	60,53
971,279	59,62
971,662	60,43
972,045	59,92
972,428	61,04
972,81	60,7
973,193	60,58
973,575	61,09
973,958	59,79
974,34	60,43
974,723	60,56
975,105	59,77
975,487	60,83
975,869	60,19
976,251	60,13
976,633	60,96
977,015	60,51
977,396	61,3
977,778	60,43
978,16	60,63
978,541	60,18
978,922	60,55
979,304	60,97
979,685	60,44
980,066	60,51
980,447	59,85
980,828	60,78
981,209	59,84
981,59	60,9
981,97	60,07
982,351	59,68
982,732	59,8
983,112	60,54
983,493	60,56
983,873	59,94
984,253	60,79
984,633	60,8
985,013	60,44
985,393	60,86
985,773	60,58
986,153	61,22
986,533	60,95
986,912	60,38
987,292	60,68
987,671	60,36
988,051	59,61
988,43	61
988,809	61,25
989,188	60,77
989,567	60,91
989,946	60,85
990,325	61,26
990,704	60,81
991,083	61,41
991,461	60,73
991,84	60,27
992,218	61,51
992,597	61,16
992,975	60,8
993,353	60,93
993,732	60,76
994,11	60,49
994,488	61,15
994,866	59,99
995,243	61,24
995,621	61,33
995,999	61,45
996,376	60,63
996,754	60,72
997,131	60,64
997,509	61,58
997,886	60,74
998,263	61,2
998,64	61,36
999,017	61,9
999,394	61,18
999,771	61,53
1000,148	61,81
1000,524	60,95
1000,901	61,54
1001,277	61,93
1001,654	61,37
1002,03	61,7
1002,406	61,18
1002,783	60,81
1003,159	60,65
1003,535	60,63
1003,911	61,43
1004,286	61,49
1004,662	61,7
1005,038	61,39
1005,414	61,34
1005,789	60,44
1006,164	61,66
1006,54	61,89
1006,915	61,92
1007,29	62,75
1007,665	61,57
1008,04	62,13
1008,415	60,64
1008,79	61,31
1009,165	60,96
1009,54	61,79
1009,914	62,34
1010,289	61,9
1010,663	62,11
1011,038	61,1
1011,412	62,64
1011,786	61,75
1012,16	63,01
1012,535	62,13
1012,909	62,01
1013,282	61,35
1013,656	62,61
1014,03	62,9
1014,404	61,96
1014,777	61,53
1015,151	62,03
1015,524	61,69
1015,897	62,08
1016,271	62,12
1016,644	61,75
1017,017	62,15
1017,39	61,89
1017,763	62,62
1018,136	61,56
1018,508	63,65
1018,881	61,09
1019,254	62,24
1019,626	61,79
1019,999	61,57
1020,371	61,32
1020,743	63,05
1021,116	62,22
1021,488	62,3
1021,86	61,66
1022,232	62,58
1022,604	63,4
1022,975	62,38
1023,347	63,04
1023,719	62,45
1024,09	62,72
1024,462	62,67
1024,833	61,12
1025,204	62,04
1025,576	61,76
1025,947	62,99
1026,318	61,57
1026,689	62,18
1027,06	61,54
1027,431	62,09
1027,801	62,93
1028,172	62,02
1028,543	62,6
1028,913	62,31
1029,284	62,35
1029,654	62,62
1030,024	63,55
1030,394	62,44
1030,764	60,82
1031,135	62,25
1031,504	64
1031,874	61,95
1032,244	63,28
1032,614	63,68
1032,983	62,29
1033,353	62,96
1033,722	63,12
1034,092	63,07
1034,461	62,9
1034,83	64,12
1035,2	62,03
1035,569	62,23
1035,938	62,65
1036,307	63,59
1036,675	63,82
1037,044	64,25
1037,413	63,09
1037,781	62,39
1038,15	63,8
1038,518	62,24
1038,887	62,77
1039,255	61,45
1039,623	62,46
1039,991	62,8
1040,359	64,16
1040,727	62,24
1041,095	64,11
1041,463	63,5
1041,831	63,03
1042,198	62,19
1042,566	62,09
1042,933	64,16
1043,301	63,5
1043,668	62,98
1044,035	62,74
1044,402	63,95
1044,77	63,38
1045,137	62,37
1045,503	63,03
1045,87	63,29
1046,237	62,46
1046,604	64,78
1046,97	61,89
1047,337	63,23
1047,703	63,17
1048,07	62,99
1048,436	63,77
1048,802	61,94
1049,168	62,41
1049,534	64,23
1049,9	63,09
1050,266	62,69
1050,632	62,62
1050,998	63,71
1051,364	63,35
1051,729	64,47
1052,095	64,37
1052,46	62,87
1052,825	63,77
1053,191	64,11
1053,556	64,43
1053,921	63,83
1054,286	61,41
1054,651	63,8
1055,016	63,76
1055,381	63,15
1055,745	63,32
1056,11	63,38
1056,475	63,88
1056,839	63,91
1057,203	62,98
1057,568	62,08
1057,932	66,21
1058,296	66,54
1058,66	64,09
1059,024	64,36
1059,388	63,56
1059,752	64,48
1060,116	62,96
1060,48	64,54
1060,843	63,62
1061,207	63,45
1061,57	63,1
1061,934	65,45
1062,297	63,54
1062,66	62,65
1063,023	61,87
1063,386	66,32
1063,749	65,09
1064,112	64,8
1064,475	64,84
1064,838	62,13
1065,201	63,82
1065,563	64,24
1065,926	66,55
1066,288	63,33
1066,651	61,78
1067,013	62,45
1067,375	65,11
1067,737	64,5
1068,099	62,83
1068,461	63,93
1068,823	63,06
1069,185	64,99
1069,547	64,28
1069,909	64,81
1070,27	64,89
1070,632	64,47
1070,993	62,68
1071,355	65,39
1071,716	64,32
1072,077	65,33
1072,438	63,46
1072,799	62,68
1073,16	65,15
1073,521	63,88
1073,882	62,32
1074,243	62,83
1074,603	64,55
1074,964	64,95
1075,325	65,09
1075,685	64,54
1076,045	62,88
1076,406	63,54
1076,766	65,58
1077,126	62,97
1077,486	66,62
1077,846	63,96
1078,206	63,51
1078,566	63,33
1078,925	63,91
1079,285	65,16
1079,645	64,1
1080,004	65,44
1080,364	63,46
1080,723	65,53
1081,082	64,8
1081,442	65,05
1081,801	60,7
1082,16	66,91
1082,519	64,37
1082,878	63,54
1083,237	64,16
1083,595	63,76
1083,954	63,66
1084,313	64,16
1084,671	63,1
1085,03	63,67
1085,388	63,56
1085,746	66,03
1086,104	64,45
1086,463	62,45
1086,821	64,94
1087,179	66,1
1087,537	67,7
1087,894	64,5
1088,252	65,6
1088,61	65,93
1088,967	66,61
1089,325	63,86
1089,682	65,53
1090,04	67,68
1090,397	67,73
1090,754	63,5
1091,111	63,57
1091,469	64,6
1091,826	65,89
1092,182	63,38
1092,539	66,46
1092,896	67,56
1093,253	64,18
1093,609	64,11
1093,966	63,29
1094,322	64,15
1094,679	66,03
1095,035	68,67
1095,391	67,72
1095,748	68,04
1096,104	65,98
1096,46	63,54
1096,816	66,94
1097,171	66,88
1097,527	65,63
1097,883	64,44
1098,239	66,91
1098,594	67,52
1098,95	63,98
1099,305	65,78
1099,66	66,08
1100,016	66,48
1100,371	66,64
1100,726	67,61
1101,081	65,02
1101,436	64,04
1101,791	61,94
1102,146	66,78
1102,5	65,83
1102,855	67,06
1103,21	67,83
1103,564	62,59
1103,918	68,46
1104,273	70,01
1104,627	68,49
1104,981	68,32
1105,335	65,6
1105,69	65,75
1106,043	67,68
1106,397	65,27
1106,751	65,13
1107,105	66,06
1107,459	66,41
1107,812	68,32
1108,166	66,2
1108,519	65,69
1108,873	67,08
1109,226	68,56
1109,579	68,3
1109,932	69,38
1110,285	65,19
1110,638	68,21
1110,991	64,34
1111,344	65,57
1111,697	67,55
1112,05	65,97
1112,402	70,65
1112,755	66,02
1113,107	68,76
1113,46	68,39
1113,812	66,33
1114,164	64,5
1114,517	73,87
1114,869	90,73
1115,221	98,61
1115,573	87,59
1115,924	91,56
