Data from A6__Relative__2__12-16-57-064.txt Node

Date: Fri Feb 02 12:16:57 CET 2024
User: diatiterra
Spectrometer: HDX00911
Trigger mode: 0
Integration Time (sec): 6,000000E-3
Scans to average: 2
Nonlinearity correction enabled: false
Boxcar width: 0
Storing dark spectrum: false
XAxis mode: Wavelengths
Number of Pixels in Spectrum: 2068
>>>>>Begin Spectral Data<<<<<
194,468	76,52
195,025	81,82
195,581	69,35
196,138	75,65
196,694	71,31
197,251	79,44
197,807	68,88
198,363	65,29
198,919	62,12
199,474	64,33
200,03	62,5
200,586	64,53
201,141	63,52
201,696	59,69
202,251	63,75
202,806	64,91
203,361	67,14
203,916	64,03
204,471	66,13
205,025	60,87
205,58	63,09
206,134	65,85
206,688	59,1
207,242	64,44
207,796	66,18
208,35	71,08
208,904	64,37
209,457	62,68
210,011	64,87
210,564	63,1
211,117	60,36
211,67	64,33
212,223	67,79
212,776	63,44
213,329	62,54
213,881	54,61
214,434	67,42
214,986	62,46
215,538	64,05
216,09	62,86
216,642	58,69
217,194	61,26
217,746	58,91
218,297	70,7
218,849	64,65
219,4	63,67
219,951	59,52
220,502	58,81
221,053	69,11
221,604	57,48
222,155	67,09
222,705	60,33
223,256	62,91
223,806	67,34
224,356	69,93
224,906	67,64
225,456	69,11
226,006	62,7
226,556	58,64
227,106	65,11
227,655	60,36
228,204	68,46
228,754	59,64
229,303	70,49
229,852	66,25
230,401	69,74
230,949	76,75
231,498	65,85
232,047	66,88
232,595	63,69
233,143	69,01
233,691	70,57
234,239	63,54
234,787	72,28
235,335	69,21
235,883	69,69
236,43	60,69
236,978	67,28
237,525	64,9
238,072	60,37
238,619	59,09
239,166	65,53
239,713	58,86
240,26	66,22
240,806	76,04
241,353	72,91
241,899	64,08
242,445	71,18
242,991	63,17
243,537	61,25
244,083	66,04
244,629	71,71
245,174	65,1
245,72	75,96
246,265	65,66
246,81	71,8
247,355	69,61
247,9	62,46
248,445	65,61
248,99	67,01
249,534	65,16
250,079	64,86
250,623	70,82
251,168	62,8
251,712	70,68
252,256	65,11
252,8	62,86
253,343	66,78
253,887	68,15
254,43	61,94
254,974	63,19
255,517	67,96
256,06	62,87
256,603	63,06
257,146	64,26
257,689	59,25
258,232	68,81
258,774	67,33
259,317	59,55
259,859	70,73
260,401	64,13
260,943	62,21
261,485	59,13
262,027	63,81
262,569	72,17
263,11	62,5
263,652	64,81
264,193	68,4
264,734	64,26
265,275	63,25
265,816	59,94
266,357	68,64
266,898	71
267,438	60,98
267,979	63,08
268,519	64,43
269,059	55,35
269,6	61,74
270,14	69,8
270,68	63,34
271,219	68,39
271,759	56,63
272,298	69,97
272,838	56,38
273,377	65,05
273,916	61,2
274,455	67,07
274,994	60,5
275,533	70,03
276,072	67,59
276,61	64,67
277,149	59,12
277,687	57,63
278,225	61,59
278,763	65,89
279,301	69,2
279,839	58,44
280,377	68,44
280,914	66,45
281,452	64,31
281,989	75,17
282,526	58,7
283,064	63,78
283,601	58,58
284,137	67,86
284,674	70,59
285,211	57,59
285,747	57,24
286,284	68,03
286,82	68,23
287,356	58,05
287,892	72,16
288,428	61,24
288,964	56,58
289,5	62,19
290,035	59,86
290,571	73,2
291,106	65,61
291,641	67,56
292,176	60,6
292,711	57,56
293,246	65,34
293,781	66,88
294,315	68,55
294,85	66,45
295,384	57,64
295,918	61,09
296,453	67,57
296,987	55,03
297,52	57,67
298,054	69,12
298,588	65,02
299,121	61,18
299,655	70,82
300,188	61,97
300,721	60,19
301,254	62,15
301,787	63,07
302,32	57,43
302,853	72,22
303,385	56,44
303,918	56,76
304,45	65,26
304,982	60,2
305,514	58,03
306,046	63,54
306,578	64,8
307,11	60
307,641	60,87
308,173	62,67
308,704	55,66
309,236	60,6
309,767	58,36
310,298	64,43
310,829	70,61
311,359	67,62
311,89	62,06
312,421	60,54
312,951	66,56
313,481	56,51
314,012	60
314,542	64,24
315,072	64,29
315,601	62,24
316,131	66,55
316,661	69,41
317,19	63,06
317,72	55,24
318,249	59,52
318,778	60
319,307	56,62
319,836	60,32
320,365	67,45
320,893	65,54
321,422	62,33
321,95	64,38
322,479	61,95
323,007	55,26
323,535	68,04
324,063	62,88
324,591	55,56
325,118	64,45
325,646	65,38
326,173	54,98
326,701	67,33
327,228	55,67
327,755	52,7
328,282	56,95
328,809	62,09
329,336	62,59
329,862	60,61
330,389	50,8
330,915	65,05
331,441	58,79
331,968	58,43
332,494	50
333,02	57,14
333,545	51,35
334,071	52,65
334,597	61,72
335,122	51,48
335,648	59,16
336,173	62,78
336,698	58,28
337,223	54,89
337,748	52,96
338,272	56,4
338,797	51,42
339,322	60,35
339,846	53,85
340,37	48,37
340,894	50,95
341,419	51,36
341,942	53,75
342,466	48,4
342,99	50,87
343,514	49,85
344,037	47,34
344,56	50,44
345,084	52,03
345,607	52,69
346,13	46,26
346,653	50,41
347,175	44,62
347,698	39,89
348,221	51,18
348,743	44,88
349,265	47,21
349,787	41,69
350,309	41,35
350,831	41,02
351,353	42,28
351,875	42,19
352,397	42,16
352,918	37,76
353,439	36,74
353,961	40,37
354,482	44,23
355,003	37,89
355,524	39,58
356,044	39,95
356,565	37,92
357,086	38,37
357,606	39,95
358,126	36,84
358,646	41,22
359,167	39,21
359,687	34,06
360,206	35,08
360,726	34,82
361,246	35,81
361,765	38,62
362,285	33,67
362,804	35,58
363,323	33,33
363,842	36,48
364,361	31,12
364,88	32,49
365,398	34,78
365,917	33,46
366,435	27,91
366,954	31,07
367,472	31,53
367,99	31,53
368,508	31,88
369,026	32,89
369,544	31,71
370,061	30,07
370,579	31,92
371,096	27,86
371,613	26,34
372,131	29,59
372,648	30,78
373,165	31,24
373,681	29,09
374,198	29,71
374,715	27,09
375,231	30,15
375,747	28,59
376,264	23,46
376,78	26,98
377,296	29,69
377,812	26,52
378,327	27,21
378,843	26,9
379,359	29,32
379,874	26,6
380,389	25,29
380,905	24,79
381,42	23,65
381,935	26,08
382,449	26,74
382,964	24,43
383,479	22,59
383,993	23,14
384,508	21,86
385,022	23,41
385,536	22,51
386,05	21,93
386,564	21,62
387,078	20,13
387,592	21,69
388,105	20,77
388,619	17,27
389,132	19,38
389,645	21,07
390,158	19,21
390,671	17,22
391,184	20,19
391,697	19,76
392,21	18,51
392,722	18,49
393,235	17,19
393,747	17,31
394,259	17,85
394,771	17,68
395,283	17,19
395,795	15,86
396,307	17,4
396,818	16,52
397,33	16,77
397,841	16,15
398,353	14,81
398,864	15,35
399,375	15,71
399,886	14,22
400,397	14,18
400,907	14,86
401,418	13,81
401,928	14,08
402,439	14,02
402,949	13,3
403,459	13,03
403,969	13,3
404,479	13,35
404,989	12,28
405,498	12,75
406,008	10,8
406,517	11,67
407,027	11,07
407,536	9,55
408,045	9,95
408,554	10,76
409,063	9,49
409,572	9,13
410,08	9,57
410,589	9
411,097	8,45
411,606	8,25
412,114	7,9
412,622	8,13
413,13	8,1
413,638	7,02
414,145	6,86
414,653	6,87
415,16	6,89
415,668	7,15
416,175	6,49
416,682	6,1
417,189	5,96
417,696	5,82
418,203	6,21
418,71	5,65
419,216	5,62
419,723	5,24
420,229	5,45
420,735	5,72
421,242	5,67
421,748	5,32
422,254	5,69
422,759	5,23
423,265	4,87
423,771	5,2
424,276	5,04
424,781	5,05
425,287	4,99
425,792	5,01
426,297	5,15
426,802	4,87
427,306	4,95
427,811	4,8
428,316	4,6
428,82	4,64
429,324	4,56
429,829	4,88
430,333	4,64
430,837	4,37
431,34	4,66
431,844	4,55
432,348	4,63
432,851	4,22
433,355	4,11
433,858	4,71
434,361	4,12
434,864	4,37
435,367	4,48
435,87	4,22
436,373	4,48
436,876	4,1
437,378	4,33
437,88	4,25
438,383	4,4
438,885	4,06
439,387	4,04
439,889	4,29
440,391	3,97
440,892	4,06
441,394	3,99
441,896	4,24
442,397	4,3
442,898	4,04
443,399	4,25
443,9	4,04
444,401	4,24
444,902	3,94
445,403	3,97
445,903	4,21
446,404	4,26
446,904	3,85
447,405	4,03
447,905	4,2
448,405	3,78
448,905	3,95
449,404	4,06
449,904	4,19
450,404	4,07
450,903	4,17
451,403	4,22
451,902	4,14
452,401	4,1
452,9	4,06
453,399	3,99
453,898	4,04
454,396	4,25
454,895	3,92
455,393	4,11
455,892	3,92
456,39	4,05
456,888	3,88
457,386	4,14
457,884	4,17
458,382	4,14
458,879	4
459,377	3,98
459,874	4,01
460,372	4,15
460,869	3,91
461,366	3,97
461,863	4,14
462,36	3,89
462,857	4,08
463,353	4,04
463,85	4,13
464,346	3,78
464,843	3,91
465,339	3,89
465,835	3,93
466,331	4,02
466,827	4
467,323	3,85
467,818	4,13
468,314	3,79
468,809	3,85
469,305	3,93
469,8	4,03
470,295	3,85
470,79	4,09
471,285	4
471,78	4
472,274	3,99
472,769	3,95
473,263	4,07
473,758	3,71
474,252	4,01
474,746	3,96
475,24	4,16
475,734	4,02
476,228	3,97
476,721	3,97
477,215	3,84
477,708	4,08
478,202	3,9
478,695	3,83
479,188	3,98
479,681	3,94
480,174	3,77
480,667	3,87
481,159	3,88
481,652	3,88
482,144	4,08
482,637	4,1
483,129	3,8
483,621	3,93
484,113	3,87
484,605	3,93
485,097	4,08
485,588	3,85
486,08	3,97
486,571	3,91
487,063	4,11
487,554	4,26
488,045	4,04
488,536	3,97
489,027	4,03
489,518	4
490,008	4,09
490,499	3,98
490,989	4,03
491,48	4,25
491,97	4,08
492,46	4,09
492,95	4,01
493,44	3,91
493,93	3,94
494,419	3,98
494,909	4,3
495,398	4,21
495,888	4,19
496,377	4,27
496,866	4,26
497,355	4,31
497,844	4,23
498,333	4,35
498,821	4,3
499,31	4,51
499,798	4,54
500,287	4,51
500,775	4,58
501,263	4,75
501,751	4,67
502,239	4,58
502,727	4,69
503,215	4,93
503,702	4,81
504,19	4,77
504,677	4,83
505,164	4,93
505,651	4,98
506,139	5,08
506,625	5,08
507,112	5,29
507,599	5,17
508,086	5,51
508,572	5,5
509,058	5,5
509,545	5,65
510,031	5,63
510,517	5,9
511,003	5,94
511,489	5,98
511,974	5,91
512,46	6,23
512,946	6,42
513,431	6,55
513,916	6,55
514,401	6,65
514,887	6,76
515,371	6,81
515,856	7,13
516,341	7,2
516,826	7,34
517,31	7,54
517,795	7,61
518,279	7,87
518,763	8,22
519,247	8,25
519,731	8,5
520,215	8,67
520,699	8,66
521,182	8,98
521,666	9,3
522,149	9,31
522,633	9,53
523,116	9,67
523,599	9,9
524,082	10,41
524,565	10,4
525,048	10,56
525,53	10,68
526,013	10,97
526,495	11,05
526,978	11,33
527,46	11,55
527,942	11,56
528,424	11,68
528,906	12,07
529,388	12,03
529,87	12,27
530,351	12,63
530,833	12,52
531,314	12,67
531,795	12,96
532,277	12,92
532,758	13,18
533,238	13,3
533,719	13,47
534,2	13,4
534,681	13,58
535,161	13,69
535,642	13,81
536,122	13,54
536,602	13,79
537,082	14,06
537,562	14,01
538,042	14
538,522	14,17
539,001	14,1
539,481	14,25
539,96	14,19
540,44	14,19
540,919	14,63
541,398	14,6
541,877	14,41
542,356	14,52
542,835	14,55
543,313	14,51
543,792	14,62
544,27	14,46
544,749	14,66
545,227	14,47
545,705	14,53
546,183	14,74
546,661	14,72
547,139	14,65
547,616	14,82
548,094	15,06
548,571	15,05
549,049	15,02
549,526	14,91
550,003	15,26
550,48	14,99
550,957	15,36
551,434	14,82
551,911	14,85
552,387	15,18
552,864	15,08
553,34	15,07
553,817	15,37
554,293	14,92
554,769	15,08
555,245	15,05
555,721	15,01
556,197	14,78
556,672	15,07
557,148	14,93
557,623	14,83
558,099	14,85
558,574	14,82
559,049	14,94
559,524	14,95
559,999	14,65
560,474	14,59
560,948	14,43
561,423	14,56
561,897	14,4
562,372	14,3
562,846	14,13
563,32	14,25
563,794	14,01
564,268	13,87
564,742	13,74
565,216	13,86
565,69	13,76
566,163	13,43
566,636	13,47
567,11	13,35
567,583	13,05
568,056	12,94
568,529	12,94
569,002	12,65
569,475	12,51
569,947	12,55
570,42	12,2
570,892	12,19
571,365	12,22
571,837	11,88
572,309	11,78
572,781	11,61
573,253	11,4
573,725	11,31
574,197	11,31
574,668	11,28
575,14	11,16
575,611	10,81
576,082	10,88
576,554	10,76
577,025	10,72
577,496	10,63
577,967	10,42
578,437	10,18
578,908	10,21
579,379	10,1
579,849	10,03
580,319	9,92
580,79	9,71
581,26	9,89
581,73	9,64
582,2	9,46
582,669	9,52
583,139	9,37
583,609	9,34
584,078	9,37
584,548	9,18
585,017	9,22
585,486	9,08
585,955	9,14
586,424	9
586,893	9,01
587,362	9,04
587,83	9,06
588,299	8,92
588,767	8,91
589,236	8,78
589,704	8,59
590,172	8,77
590,64	8,55
591,108	8,44
591,576	8,41
592,043	8,46
592,511	8,41
592,978	8,34
593,446	8,39
593,913	8,32
594,38	8,35
594,847	8,32
595,314	8,29
595,781	8,06
596,248	8,18
596,715	8,1
597,181	8,04
597,647	8,02
598,114	8,04
598,58	8,21
599,046	8,05
599,512	8,1
599,978	7,96
600,444	7,99
600,91	8,04
601,375	7,8
601,841	8,03
602,306	7,84
602,771	7,85
603,236	8,02
603,702	7,79
604,167	7,87
604,631	7,81
605,096	7,88
605,561	7,67
606,025	7,63
606,49	7,8
606,954	7,56
607,418	7,51
607,882	7,43
608,347	7,35
608,81	7,43
609,274	7,36
609,738	7,39
610,202	7,32
610,665	7,18
611,128	7,28
611,592	7,15
612,055	7,14
612,518	7,1
612,981	6,91
613,444	6,94
613,907	6,96
614,369	6,91
614,832	6,81
615,294	6,81
615,757	6,76
616,219	6,78
616,681	6,7
617,143	6,75
617,605	6,63
618,067	6,54
618,529	6,58
618,99	6,53
619,452	6,48
619,913	6,51
620,375	6,41
620,836	6,42
621,297	6,38
621,758	6,27
622,219	6,34
622,68	6,22
623,14	6,31
623,601	6,25
624,061	6,29
624,522	6,31
624,982	6,16
625,442	6,22
625,902	6,15
626,362	6,14
626,822	6,14
627,282	6,16
627,742	6,15
628,201	6,07
628,661	6,14
629,12	6,04
629,579	6,11
630,038	6,16
630,497	6,15
630,956	5,91
631,415	6,12
631,874	5,96
632,332	5,91
632,791	6
633,249	5,98
633,708	5,95
634,166	5,91
634,624	5,83
635,082	5,82
635,54	5,9
635,998	5,82
636,455	5,68
636,913	5,61
637,37	5,64
637,828	5,56
638,285	5,56
638,742	5,51
639,199	5,5
639,656	5,39
640,113	5,42
640,57	5,27
641,027	5,25
641,483	5,19
641,94	5,18
642,396	5,11
642,852	5,11
643,309	5,06
643,765	4,94
644,221	4,91
644,676	4,9
645,132	4,78
645,588	4,81
646,043	4,75
646,499	4,64
646,954	4,63
647,409	4,63
647,864	4,5
648,319	4,57
648,774	4,53
649,229	4,5
649,684	4,5
650,139	4,4
650,593	4,42
651,047	4,4
651,502	4,41
651,956	4,34
652,41	4,37
652,864	4,37
653,318	4,33
653,772	4,34
654,225	4,36
654,679	4,41
655,133	4,33
655,586	4,38
656,039	4,2
656,492	4,25
656,946	4,27
657,399	4,26
657,851	4,28
658,304	4,28
658,757	4,21
659,209	4,31
659,662	4,23
660,114	4,18
660,567	4,2
661,019	4,09
661,471	4,17
661,923	4,13
662,375	4,03
662,826	4,17
663,278	4,04
663,73	4,1
664,181	4,03
664,632	4,04
665,084	4,03
665,535	4,04
665,986	4,09
666,437	4,04
666,888	4,09
667,338	4,11
667,789	4,07
668,24	4,14
668,69	4,07
669,14	4,1
669,591	4,12
670,041	4,15
670,491	4,18
670,941	4,12
671,391	4,21
671,84	4,32
672,29	4,37
672,74	4,36
673,189	4,42
673,638	4,46
674,088	4,55
674,537	4,59
674,986	4,63
675,435	4,71
675,883	4,75
676,332	4,76
676,781	4,79
677,229	4,94
677,678	5,05
678,126	5,15
678,574	5,1
679,022	5,19
679,47	5,32
679,918	5,44
680,366	5,39
680,814	5,52
681,261	5,57
681,709	5,65
682,156	5,69
682,604	5,77
683,051	5,87
683,498	5,93
683,945	5,99
684,392	6,03
684,839	6,11
685,286	6,28
685,732	6,14
686,179	6,21
686,625	6,25
687,071	6,4
687,518	6,36
687,964	6,44
688,41	6,57
688,856	6,61
689,301	6,69
689,747	6,66
690,193	6,81
690,638	7,06
691,084	7,16
691,529	7,27
691,974	7,35
692,419	7,63
692,864	7,83
693,309	7,98
693,754	8,31
694,199	8,59
694,643	8,88
695,088	9,12
695,532	9,57
695,977	9,82
696,421	10,17
696,865	10,59
697,309	10,9
697,753	11,41
698,197	11,79
698,64	12,26
699,084	12,75
699,527	13,29
699,971	13,59
700,414	14,12
700,857	14,77
701,3	15,14
701,743	15,48
702,186	16,09
702,629	16,67
703,072	17,21
703,515	17,8
703,957	18,38
704,399	18,98
704,842	19,48
705,284	20,12
705,726	20,74
706,168	21,29
706,61	21,71
707,052	22,57
707,494	23,06
707,935	23,71
708,377	24,26
708,818	25
709,26	25,48
709,701	26,05
710,142	27,06
710,583	27,27
711,024	27,93
711,465	28,69
711,905	29,34
712,346	30,08
712,787	30,75
713,227	31,45
713,667	32,21
714,108	32,85
714,548	33,19
714,988	34,35
715,428	34,77
715,868	35,64
716,307	36,41
716,747	36,94
717,186	37,67
717,626	38,42
718,065	39,1
718,504	39,84
718,944	40,71
719,383	41,33
719,822	42,15
720,261	42,76
720,699	43,56
721,138	44,18
721,576	45,07
722,015	45,88
722,453	46,27
722,892	46,82
723,33	47,62
723,768	48,53
724,206	48,85
724,644	49,78
725,081	50,14
725,519	51,15
725,957	51,59
726,394	52,22
726,832	52,85
727,269	53,42
727,706	53,93
728,143	54,59
728,58	55,07
729,017	55,88
729,454	56,64
729,89	56,83
730,327	57,21
730,764	57,86
731,2	58,59
731,636	58,8
732,072	59,7
732,509	59,85
732,945	60,39
733,38	61
733,816	61,1
734,252	61,4
734,688	61,69
735,123	62,65
735,559	62,99
735,994	63,16
736,429	63,64
736,864	64,1
737,299	64,49
737,734	64,51
738,169	64,71
738,604	65,03
739,038	65,46
739,473	65,4
739,907	66,25
740,342	66,21
740,776	66,74
741,21	67,14
741,644	67,14
742,078	67,36
742,512	67,4
742,946	67,84
743,379	67,71
743,813	68,44
744,246	68,44
744,68	68,37
745,113	68,98
745,546	68,3
745,979	68,45
746,412	68,64
746,845	68,72
747,278	69,18
747,711	69,21
748,143	69,55
748,576	69,58
749,008	69,68
749,441	69,54
749,873	69,69
750,305	69,55
750,737	69,82
751,169	69,55
751,601	70,07
752,032	69,51
752,464	69,61
752,896	70,14
753,327	70,1
753,758	70,08
754,19	70,02
754,621	70,19
755,052	70,29
755,483	70,37
755,914	69,98
756,344	70,07
756,775	70,32
757,206	70,22
757,636	69,97
758,066	69,94
758,497	70,19
758,927	70,36
759,357	70,23
759,787	70,17
760,217	70,43
760,647	69,94
761,076	70,01
761,506	69,96
761,935	69,99
762,365	69,81
762,794	69,74
763,223	70,17
763,653	70,39
764,082	70,33
764,51	69,95
764,939	70
765,368	69,64
765,797	70,1
766,225	70,01
766,654	69,73
767,082	69,95
767,51	69,88
767,938	70,06
768,367	69,7
768,795	69,7
769,222	70,05
769,65	69,64
770,078	69,6
770,505	70,03
770,933	69,77
771,36	69,41
771,788	69,71
772,215	70,05
772,642	69,88
773,069	69,47
773,496	69,45
773,923	69,88
774,349	69,39
774,776	69,6
775,203	69,77
775,629	69,53
776,055	69,3
776,482	69,91
776,908	69,43
777,334	69,46
777,76	69,58
778,186	69,36
778,611	69,22
779,037	69,26
779,463	68,82
779,888	69,14
780,314	69,3
780,739	69,43
781,164	69,61
781,589	69,43
782,014	69
782,439	69,55
782,864	68,94
783,289	69,28
783,713	69,29
784,138	68,98
784,562	69,46
784,987	68,94
785,411	69,21
785,835	68,76
786,259	69,04
786,683	69,35
787,107	69,02
787,531	68,98
787,954	69,4
788,378	69,06
788,802	69,21
789,225	69,06
789,648	69,46
790,071	69,25
790,495	69,29
790,918	69,41
791,34	69,21
791,763	69,21
792,186	68,77
792,609	69,17
793,031	69,12
793,454	68,86
793,876	68,96
794,298	69,15
794,721	68,94
795,143	69,22
795,565	69,2
795,986	69,11
796,408	68,7
796,83	68,82
797,252	69,12
797,673	68,71
798,094	68,73
798,516	69,19
798,937	69,11
799,358	69,02
799,779	69,05
800,2	69,18
800,621	69,06
801,042	69,15
801,462	69,27
801,883	69,42
802,303	68,95
802,724	69,03
803,144	68,94
803,564	69,39
803,984	68,52
804,404	69,07
804,824	69,06
805,244	69,28
805,664	68,77
806,084	68,66
806,503	68,82
806,923	68,88
807,342	68,8
807,761	69,12
808,18	69,01
808,599	68,92
809,018	69,24
809,437	68,85
809,856	68,82
810,275	69,03
810,693	68,66
811,112	69,32
811,53	68,78
811,949	68,92
812,367	68,83
812,785	69,09
813,203	68,79
813,621	68,76
814,039	68,85
814,457	68,8
814,874	68,7
815,292	68,96
815,709	69,02
816,127	69,1
816,544	68,69
816,961	68,48
817,378	68,69
817,795	68,86
818,212	68,84
818,629	68,82
819,046	68,91
819,462	68,66
819,879	68,75
820,295	69,1
820,712	68,83
821,128	68,91
821,544	68,7
821,96	68,39
822,376	68,43
822,792	68,71
823,208	68,72
823,624	68,64
824,039	68,73
824,455	68,76
824,87	68,71
825,286	68,62
825,701	68,56
826,116	69,22
826,531	68,24
826,946	68,69
827,361	68,87
827,776	68,8
828,19	68,8
828,605	68,69
829,02	68,42
829,434	68,69
829,848	68,38
830,263	68,65
830,677	68,98
831,091	69,03
831,505	68,55
831,919	68,45
832,332	68,39
832,746	68,66
833,16	68,63
833,573	68,83
833,987	68,7
834,4	68,16
834,813	68,61
835,226	68,68
835,639	68,65
836,052	68,45
836,465	68,75
836,878	68,93
837,29	68,55
837,703	68,81
838,116	68,65
838,528	68,48
838,94	68,45
839,352	68,67
839,765	68,55
840,177	68,26
840,589	68,33
841	68,49
841,412	68,6
841,824	68,8
842,235	68,57
842,647	68,49
843,058	68,67
843,47	68,75
843,881	68,46
844,292	68,7
844,703	68,14
845,114	68,29
845,525	68,42
845,935	68,47
846,346	68,73
846,757	68,27
847,167	68,14
847,577	68,65
847,988	68,89
848,398	68,47
848,808	68,76
849,218	68,16
849,628	68,23
850,038	68,32
850,448	68,65
850,857	68,66
851,267	68,38
851,676	68,68
852,086	68,31
852,495	68,37
852,904	68,12
853,313	68,52
853,722	68,61
854,131	68,61
854,54	68,25
854,949	68,37
855,357	68,4
855,766	68,3
856,174	68,59
856,583	68,48
856,991	68,32
857,399	68,31
857,807	68,26
858,215	68,28
858,623	68,5
859,031	68,68
859,439	68,5
859,846	68,05
860,254	68,58
860,661	68,49
861,069	68,33
861,476	68,38
861,883	68,22
862,29	68,47
862,697	68,19
863,104	68,18
863,511	68,63
863,918	68,41
864,325	68,29
864,731	68,67
865,138	68,73
865,544	68,47
865,95	68,16
866,357	68,32
866,763	68,58
867,169	68,95
867,575	68,55
867,98	68,4
868,386	68,66
868,792	68,19
869,197	68,47
869,603	68,2
870,008	68
870,414	68,34
870,819	68,24
871,224	68,65
871,629	68,2
872,034	68,06
872,439	68,73
872,844	68,38
873,248	68,26
873,653	68,16
874,057	68,3
874,462	67,82
874,866	68,56
875,27	68,15
875,674	67,97
876,078	68,41
876,482	68,25
876,886	68,22
877,29	67,86
877,694	68,05
878,097	68,25
878,501	68,69
878,904	68,3
879,308	68,24
879,711	68,25
880,114	68,31
880,517	68,25
880,92	67,82
881,323	68,21
881,726	68,08
882,128	67,9
882,531	68,48
882,934	68,08
883,336	68,25
883,738	68,18
884,141	67,88
884,543	67,71
884,945	68,35
885,347	67,99
885,749	68,49
886,151	68,07
886,552	68,11
886,954	68,29
887,355	68,05
887,757	68,57
888,158	67,72
888,56	68,01
888,961	68,36
889,362	68,25
889,763	67,92
890,164	68,13
890,565	68,15
890,965	67,83
891,366	68,15
891,767	68,49
892,167	68,23
892,567	68,36
892,968	68,18
893,368	68,32
893,768	68,38
894,168	67,84
894,568	68,24
894,968	67,92
895,368	68,45
895,767	68,15
896,167	68,16
896,566	68,28
896,966	68,24
897,365	68,33
897,764	68,41
898,164	68,02
898,563	67,47
898,962	68,08
899,361	68,2
899,759	67,98
900,158	68,17
900,557	67,95
900,955	68,41
901,354	67,84
901,752	68,45
902,15	68,11
902,548	68,15
902,947	68,15
903,345	68,33
903,742	68,07
904,14	68,42
904,538	68,47
904,936	68,37
905,333	68,17
905,731	68,18
906,128	68,11
906,525	68,45
906,923	68,35
907,32	68,56
907,717	68,03
908,114	68,25
908,511	68,15
908,907	67,87
909,304	68,06
909,701	68,25
910,097	68,16
910,494	68,52
910,89	68,43
911,286	68,11
911,682	68,36
912,078	68,08
912,474	67,89
912,87	68,35
913,266	67,93
913,662	68,34
914,058	67,75
914,453	67,98
914,849	68,15
915,244	68,02
915,639	68,25
916,034	68,1
916,43	68,22
916,825	68,02
917,22	68,45
917,614	68,05
918,009	67,65
918,404	68,07
918,798	68,69
919,193	68,12
919,587	67,9
919,982	68,49
920,376	67,83
920,77	68,3
921,164	68,49
921,558	68,16
921,952	68,07
922,346	68,32
922,74	67,99
923,133	67,36
923,527	67,84
923,92	68,5
924,314	68,13
924,707	67,83
925,1	68,41
925,493	68,11
925,886	67,68
926,279	68,19
926,672	68,28
927,065	67,63
927,457	68,15
927,85	67,87
928,243	68,18
928,635	67,72
929,027	68,08
929,42	67,48
929,812	67,83
930,204	67,59
930,596	67,83
930,988	67,36
931,379	67,77
931,771	67,51
932,163	67,92
932,554	67,77
932,946	67,55
933,337	67,37
933,729	67,52
934,12	67,52
934,511	67,17
934,902	67,66
935,293	67,76
935,684	67,67
936,075	67,19
936,465	67,92
936,856	66,94
937,246	67,01
937,637	67,98
938,027	67,75
938,417	67,34
938,808	66,88
939,198	67,05
939,588	67,17
939,978	66,89
940,368	67,28
940,757	67,83
941,147	67,24
941,537	66,61
941,926	67,11
942,315	66,6
942,705	67,16
943,094	68,13
943,483	67
943,872	67,8
944,261	67,68
944,65	67,57
945,039	66,58
945,428	67,74
945,816	67,3
946,205	66,88
946,593	66,71
946,982	66,82
947,37	66,91
947,758	66,35
948,146	66,78
948,534	67,3
948,922	67,09
949,31	66,62
949,698	66,18
950,086	66,66
950,473	66,12
950,861	67,01
951,248	66,95
951,636	66,68
952,023	66,78
952,41	66,44
952,797	66,93
953,184	65,95
953,571	66,72
953,958	66,44
954,345	66,59
954,731	66,06
955,118	65,89
955,505	66,16
955,891	66,44
956,277	65,68
956,664	65,94
957,05	66,03
957,436	66,02
957,822	67,51
958,208	65,43
958,594	65,73
958,979	65,68
959,365	65,6
959,751	65,73
960,136	65,83
960,522	65,5
960,907	66,3
961,292	65,75
961,677	65,95
962,062	66,32
962,447	65,73
962,832	65,77
963,217	65,48
963,602	65,68
963,986	66,2
964,371	65,51
964,756	66,23
965,14	65,62
965,524	66,09
965,908	65,55
966,293	66,25
966,677	65,38
967,061	65,56
967,445	65,68
967,828	65,47
968,212	65,54
968,596	66,19
968,979	65,8
969,363	65,56
969,746	65,32
970,129	65,96
970,513	65,28
970,896	65,98
971,279	66,1
971,662	65,78
972,045	65,34
972,428	65,83
972,81	65,95
973,193	65,42
973,575	66,47
973,958	65,22
974,34	65,54
974,723	65,88
975,105	65,66
975,487	65,1
975,869	65,84
976,251	65,79
976,633	66
977,015	65,37
977,396	65,79
977,778	65,23
978,16	65,65
978,541	65,41
978,922	65,98
979,304	65,35
979,685	66,03
980,066	66,12
980,447	65,51
980,828	65,89
981,209	66,2
981,59	65,83
981,97	65,71
982,351	66,53
982,732	65,55
983,112	66,07
983,493	65,33
983,873	65,69
984,253	66,16
984,633	65,92
985,013	65,73
985,393	65,35
985,773	65,82
986,153	65,15
986,533	66,02
986,912	66,17
987,292	65,58
987,671	65,29
988,051	65,47
988,43	65,79
988,809	66,11
989,188	65,34
989,567	66,84
989,946	66,45
990,325	65,74
990,704	66,56
991,083	66,3
991,461	66,05
991,84	65,22
992,218	65,56
992,597	66,08
992,975	65,95
993,353	66,2
993,732	65,46
994,11	65,95
994,488	66,77
994,866	65,79
995,243	65,25
995,621	66,28
995,999	65,97
996,376	65,49
996,754	66,16
997,131	65,71
997,509	65,99
997,886	65,92
998,263	65,61
998,64	66,38
999,017	66,32
999,394	66,17
999,771	66,14
1000,148	65,75
1000,524	66,64
1000,901	66,67
1001,277	65,82
1001,654	66,29
1002,03	66,2
1002,406	66,3
1002,783	66,99
1003,159	66,53
1003,535	66,43
1003,911	66,19
1004,286	65,85
1004,662	66,08
1005,038	65,9
1005,414	66,42
1005,789	66,87
1006,164	66,29
1006,54	66,71
1006,915	66,55
1007,29	66,29
1007,665	66,42
1008,04	67,77
1008,415	67,25
1008,79	66,81
1009,165	66,95
1009,54	66,79
1009,914	66,69
1010,289	67,55
1010,663	65,97
1011,038	66,74
1011,412	65,93
1011,786	66,84
1012,16	66,65
1012,535	66,91
1012,909	66,72
1013,282	67,44
1013,656	66,83
1014,03	66,89
1014,404	67,62
1014,777	66,23
1015,151	67,52
1015,524	66,73
1015,897	67,2
1016,271	66,98
1016,644	67,29
1017,017	67,07
1017,39	66,76
1017,763	66,23
1018,136	66,78
1018,508	67,55
1018,881	67,2
1019,254	66,7
1019,626	66,69
1019,999	67,57
1020,371	66,88
1020,743	67,59
1021,116	66,98
1021,488	66,81
1021,86	67,11
1022,232	67,81
1022,604	67,27
1022,975	66,47
1023,347	68,12
1023,719	68,05
1024,09	67,79
1024,462	67,3
1024,833	67,3
1025,204	68,11
1025,576	67,03
1025,947	66,75
1026,318	67,46
1026,689	67,3
1027,06	67,2
1027,431	67,3
1027,801	66,33
1028,172	67,51
1028,543	66,99
1028,913	67,89
1029,284	67,65
1029,654	67,32
1030,024	67,86
1030,394	67,51
1030,764	67,07
1031,135	66,92
1031,504	67,47
1031,874	67,49
1032,244	67,1
1032,614	67,27
1032,983	66,87
1033,353	67,46
1033,722	66,8
1034,092	67,6
1034,461	67,53
1034,83	67,3
1035,2	67,64
1035,569	67,18
1035,938	67,23
1036,307	67,45
1036,675	67,59
1037,044	67,56
1037,413	68,25
1037,781	66,39
1038,15	67,02
1038,518	68,43
1038,887	68,1
1039,255	67,77
1039,623	67,41
1039,991	67,65
1040,359	68,54
1040,727	66,91
1041,095	67,37
1041,463	67,78
1041,831	67,25
1042,198	67,48
1042,566	67,9
1042,933	67,28
1043,301	67,22
1043,668	68
1044,035	67,46
1044,402	68,96
1044,77	66,57
1045,137	67,61
1045,503	67,31
1045,87	67,9
1046,237	68,05
1046,604	68,47
1046,97	67,18
1047,337	67,83
1047,703	67,81
1048,07	66,85
1048,436	67,49
1048,802	67,84
1049,168	68,32
1049,534	68,55
1049,9	68,45
1050,266	67,92
1050,632	67,95
1050,998	67,58
1051,364	69,37
1051,729	69,66
1052,095	67,77
1052,46	69,07
1052,825	67,46
1053,191	69,13
1053,556	68,58
1053,921	68,35
1054,286	67,87
1054,651	68,37
1055,016	68,34
1055,381	68,52
1055,745	68,43
1056,11	67,72
1056,475	67,52
1056,839	68,3
1057,203	67,89
1057,568	67,22
1057,932	68,58
1058,296	68,31
1058,66	69,53
1059,024	66,06
1059,388	67,7
1059,752	68,21
1060,116	68,66
1060,48	68,24
1060,843	66,68
1061,207	69,6
1061,57	67,57
1061,934	67,89
1062,297	67,95
1062,66	68,49
1063,023	67,71
1063,386	68,23
1063,749	67,38
1064,112	67,81
1064,475	68,6
1064,838	66,95
1065,201	66,86
1065,563	67,19
1065,926	67,74
1066,288	67,76
1066,651	68,57
1067,013	69,49
1067,375	68,81
1067,737	67,05
1068,099	67,13
1068,461	67,41
1068,823	66,62
1069,185	68,09
1069,547	68,33
1069,909	68,12
1070,27	68,26
1070,632	67,56
1070,993	68,76
1071,355	67,66
1071,716	68,99
1072,077	68,15
1072,438	68,35
1072,799	67,94
1073,16	69,16
1073,521	69,54
1073,882	68,75
1074,243	68,79
1074,603	67,45
1074,964	70,69
1075,325	67,87
1075,685	68,68
1076,045	66,68
1076,406	68,62
1076,766	69,32
1077,126	68,26
1077,486	68,51
1077,846	68,36
1078,206	67,9
1078,566	68,13
1078,925	68,99
1079,285	67,6
1079,645	69,16
1080,004	69,66
1080,364	67,05
1080,723	69,38
1081,082	66,92
1081,442	68,33
1081,801	69,52
1082,16	70,58
1082,519	68,83
1082,878	68,42
1083,237	67,22
1083,595	67,52
1083,954	67,3
1084,313	67,49
1084,671	67,54
1085,03	68,74
1085,388	69,44
1085,746	69,5
1086,104	67,28
1086,463	67,05
1086,821	68,32
1087,179	67,73
1087,537	68,15
1087,894	66,22
1088,252	66,37
1088,61	66,67
1088,967	69,4
1089,325	69,67
1089,682	67,59
1090,04	68,82
1090,397	68,78
1090,754	69,52
1091,111	70,63
1091,469	67,32
1091,826	68,04
1092,182	67,32
1092,539	67,66
1092,896	65,58
1093,253	67,24
1093,609	67,92
1093,966	68,06
1094,322	69,54
1094,679	69,86
1095,035	68,64
1095,391	69,34
1095,748	68,5
1096,104	67,32
1096,46	66,09
1096,816	67,32
1097,171	68,39
1097,527	68,99
1097,883	67,14
1098,239	70,98
1098,594	66,11
1098,95	67,12
1099,305	68,46
1099,66	66,74
1100,016	67,34
1100,371	65,97
1100,726	66,62
1101,081	66,93
1101,436	67,36
1101,791	67,43
1102,146	66,7
1102,5	68,55
1102,855	68,94
1103,21	66,39
1103,564	66,64
1103,918	67,95
1104,273	67,89
1104,627	68,47
1104,981	68,22
1105,335	67,48
1105,69	67,56
1106,043	67,8
1106,397	65,46
1106,751	69,7
1107,105	67,99
1107,459	71,59
1107,812	67,75
1108,166	70,73
1108,519	66,76
1108,873	69,82
1109,226	69,62
1109,579	66,49
1109,932	69,19
1110,285	65,89
1110,638	69,01
1110,991	69,55
1111,344	69,65
1111,697	67,02
1112,05	69,45
1112,402	69,66
1112,755	70,6
1113,107	67,14
1113,46	69,36
1113,812	68,5
1114,164	70,15
1114,517	68,3
1114,869	79,67
1115,221	78
1115,573	74,64
1115,924	79,2
