Data from C2__Relative__1__12-19-16-470.txt Node

Date: Fri Feb 02 12:19:16 CET 2024
User: diatiterra
Spectrometer: HDX00911
Trigger mode: 0
Integration Time (sec): 6,000000E-3
Scans to average: 2
Nonlinearity correction enabled: false
Boxcar width: 0
Storing dark spectrum: false
XAxis mode: Wavelengths
Number of Pixels in Spectrum: 2068
>>>>>Begin Spectral Data<<<<<
194,468	85,61
195,025	73,55
195,581	84,68
196,138	76,52
196,694	63,71
197,251	67,74
197,807	68,88
198,363	52,87
198,919	52,73
199,474	64,67
200,03	54,61
200,586	56,08
201,141	64,78
201,696	58,13
202,251	56,31
202,806	57,45
203,361	62,5
203,916	67,66
204,471	59,35
205,025	67,7
205,58	55,84
206,134	61,54
206,688	60,6
207,242	58,1
207,796	55,88
208,35	63,55
208,904	62,28
209,457	62,1
210,011	61,76
210,564	55,06
211,117	54,65
211,67	57,32
212,223	59,2
212,776	55,89
213,329	52,63
213,881	54,61
214,434	65,44
214,986	60,25
215,538	58,31
216,09	56,83
216,642	57,38
217,194	57,36
217,746	53,74
218,297	62,1
218,849	52,87
219,4	61
219,951	57,4
220,502	59,1
221,053	57,96
221,604	55,48
222,155	61,39
222,705	57,38
223,256	52,52
223,806	60,61
224,356	66,67
224,906	61,49
225,456	61,46
226,006	55,8
226,556	49,69
227,106	52,02
227,655	52,25
228,204	56,04
228,754	54,3
229,303	54,1
229,852	61,61
230,401	60,2
230,949	63,69
231,498	57,85
232,047	59,55
232,595	60,19
233,143	59,11
233,691	51,9
234,239	56,94
234,787	61,39
235,335	58,1
235,883	56,25
236,43	60,06
236,978	56,27
237,525	54,64
238,072	57,59
238,619	60,06
239,166	59,94
239,713	57,66
240,26	62,54
240,806	63,19
241,353	59,87
241,899	61,81
242,445	62,15
242,991	55,56
243,537	56,56
244,083	57,32
244,629	68,09
245,174	63,42
245,72	58,89
246,265	56,33
246,81	67,87
247,355	63,96
247,9	56,15
248,445	59,55
248,99	58,5
249,534	67,94
250,079	62,3
250,623	51,15
251,168	61,28
251,712	59,57
252,256	60,44
252,8	61,59
253,343	50,81
253,887	60,51
254,43	58,71
254,974	62,5
255,517	63,38
256,06	56,68
256,603	56,16
257,146	57,05
257,689	58,22
258,232	59,66
258,774	55,12
259,317	56,69
259,859	60,28
260,401	62,22
260,943	59,61
261,485	53,87
262,027	55,56
262,569	59,22
263,11	64,06
263,652	58,95
264,193	60,59
264,734	61,97
265,275	55,42
265,816	49,55
266,357	59,93
266,898	58,33
267,438	61,31
267,979	56,92
268,519	62,08
269,059	58,1
269,6	63,19
270,14	63,42
270,68	60,13
271,219	65,48
271,759	54,05
272,298	64,36
272,838	57,86
273,377	58,97
273,916	64,55
274,455	64,65
274,994	55,49
275,533	63,07
276,072	55,86
276,61	63,09
277,149	55,03
277,687	56,7
278,225	59,05
278,763	62,21
279,301	59,17
279,839	58,75
280,377	69,44
280,914	61,79
281,452	53,05
281,989	58,97
282,526	52,8
283,064	53,85
283,601	53,72
284,137	64,94
284,674	50,52
285,211	58,86
285,747	58,59
286,284	61,76
286,82	56,52
287,356	53,02
287,892	66,27
288,428	59,93
288,964	51,97
289,5	53,12
290,035	57,09
290,571	59,48
291,106	50,64
291,641	52,51
292,176	55,3
292,711	54,34
293,246	67,15
293,781	52,92
294,315	60,07
294,85	58,31
295,384	54,78
295,918	57
296,453	60,14
296,987	53,46
297,52	55,21
298,054	61,05
298,588	58,3
299,121	55,59
299,655	59,43
300,188	68,31
300,721	60,19
301,254	53,54
301,787	58,17
302,32	51,82
302,853	64,71
303,385	58,75
303,918	50,34
304,45	55,84
304,982	60,86
305,514	51,48
306,046	55,56
306,578	51,64
307,11	62,12
307,641	53,51
308,173	54,33
308,704	54,09
309,236	58,28
309,767	57
310,298	55,37
310,829	63,51
311,359	62,99
311,89	52,41
312,421	58,5
312,951	51,62
313,481	58,58
314,012	61,36
314,542	49,68
315,072	63,21
315,601	60,14
316,131	56,55
316,661	57,57
317,19	55,1
317,72	60
318,249	61,9
318,778	58,71
319,307	49,34
319,836	56,51
320,365	65,1
320,893	61,15
321,422	52
321,95	58,17
322,479	56,57
323,007	54,28
323,535	61,86
324,063	55,18
324,591	49,69
325,118	49,17
325,646	57,34
326,173	51,77
326,701	64
327,228	56,33
327,755	43,81
328,282	46,69
328,809	47,71
329,336	64,34
329,862	57,24
330,389	48,55
330,915	56,63
331,441	53,04
331,968	52,71
332,494	48,76
333,02	51,98
333,545	42,64
334,071	53,58
334,597	48,84
335,122	43,79
335,648	45,66
336,173	49,19
336,698	49,04
337,223	49,21
337,748	46,75
338,272	41,77
338,797	48,9
339,322	48,07
339,846	45,54
340,37	41,54
340,894	43,35
341,419	41,39
341,942	43,32
342,466	39,1
342,99	50
343,514	50,15
344,037	45,27
344,56	48,38
345,084	44,77
345,607	42,22
346,13	40,64
346,653	46,83
347,175	43,01
347,698	40,97
348,221	41,21
348,743	38,58
349,265	44,3
349,787	41,69
350,309	38,11
350,831	38,07
351,353	40,25
351,875	41,1
352,397	41,08
352,918	34,95
353,439	36,01
353,961	40,84
354,482	33,66
355,003	41,49
355,524	31,85
356,044	41,87
356,565	35,27
357,086	41,08
357,606	35,8
358,126	29,82
358,646	37
359,167	40,53
359,687	35,14
360,206	35,99
360,726	39,29
361,246	31,99
361,765	32,78
362,285	31,02
362,804	36,63
363,323	35,44
363,842	36,48
364,361	33,27
364,88	32,88
365,398	31,68
365,917	35,62
366,435	30,04
366,954	29,6
367,472	30,95
367,99	29,01
368,508	34,24
369,026	30,42
369,544	35,37
370,061	29,35
370,579	31,07
371,096	29,19
371,613	28,02
372,131	31,74
372,648	29,59
373,165	28,66
373,681	27,52
374,198	32,47
374,715	31,36
375,231	29,55
375,747	32,26
376,264	25,61
376,78	25,95
377,296	28,8
377,812	31,08
378,327	27,92
378,843	26,5
379,359	28,92
379,874	27,01
380,389	26,08
380,905	23,57
381,42	25,53
381,935	25,7
382,449	23,38
382,964	24,2
383,479	26,14
383,993	24,23
384,508	25,05
385,022	25,29
385,536	23,19
386,05	22,94
386,564	20,2
387,078	21,95
387,592	21,13
388,105	21,26
388,619	21,76
389,132	22,41
389,645	22,89
390,158	20,93
390,671	19,19
391,184	20,35
391,697	18,5
392,21	20,33
392,722	21,48
393,235	17,69
393,747	18,4
394,259	17,46
394,771	19,4
395,283	19,76
395,795	19,29
396,307	18,35
396,818	18,67
397,33	18,6
397,841	17,09
398,353	16,09
398,864	17,37
399,375	16,28
399,886	15,33
400,397	15,26
400,907	15,59
401,418	14,57
401,928	14,9
402,439	15,05
402,949	16,03
403,459	13,84
403,969	13,25
404,479	13,25
404,989	13,22
405,498	13,34
406,008	12,81
406,517	12,23
407,027	13,05
407,536	10,78
408,045	11,12
408,554	11,25
409,063	10,52
409,572	10,38
410,08	10,14
410,589	9,9
411,097	9,52
411,606	8,81
412,114	8,89
412,622	8,72
413,13	8,34
413,638	8,86
414,145	8,07
414,653	7,93
415,16	7,99
415,668	7,15
416,175	6,97
416,682	7,02
417,189	6,75
417,696	6,57
418,203	6,82
418,71	6,92
419,216	6,46
419,723	6,22
420,229	5,84
420,735	5,84
421,242	6,22
421,748	5,88
422,254	6,4
422,759	6,11
423,265	5,67
423,771	6,05
424,276	6,02
424,781	6,04
425,287	5,44
425,792	5,91
426,297	5,48
426,802	5,47
427,306	5,48
427,811	5,32
428,316	5,66
428,82	5,49
429,324	5,52
429,829	5,7
430,333	5,52
430,837	5,07
431,34	5,58
431,844	4,99
432,348	5,13
432,851	5,27
433,355	5,11
433,858	5,63
434,361	5,08
434,864	5,15
435,367	4,99
435,87	5,4
436,373	5,1
436,876	4,89
437,378	5,04
437,88	5
438,383	5,07
438,885	5
439,387	4,8
439,889	5,24
440,391	4,92
440,892	4,89
441,394	4,95
441,896	4,89
442,397	5,17
442,898	4,64
443,399	4,7
443,9	5,24
444,401	4,73
444,902	4,96
445,403	5,04
445,903	4,97
446,404	5,02
446,904	4,85
447,405	4,75
447,905	4,8
448,405	4,6
448,905	4,98
449,404	4,69
449,904	4,72
450,404	4,9
450,903	4,88
451,403	5
451,902	4,76
452,401	5,09
452,9	4,64
453,399	4,95
453,898	5,08
454,396	5,01
454,895	4,57
455,393	4,99
455,892	5
456,39	4,93
456,888	4,92
457,386	5,09
457,884	5,09
458,382	5,02
458,879	5,1
459,377	4,86
459,874	5,22
460,372	4,98
460,869	5,11
461,366	4,84
461,863	4,99
462,36	5,13
462,857	4,72
463,353	4,87
463,85	4,96
464,346	5
464,843	4,58
465,339	5,16
465,835	4,81
466,331	4,84
466,827	4,67
467,323	4,64
467,818	4,93
468,314	4,64
468,809	4,76
469,305	4,86
469,8	4,83
470,295	4,8
470,79	4,82
471,285	4,68
471,78	4,92
472,274	4,86
472,769	4,87
473,263	5,16
473,758	4,78
474,252	4,9
474,746	4,78
475,24	4,76
475,734	5,05
476,228	4,9
476,721	4,68
477,215	4,85
477,708	4,88
478,202	5
478,695	4,88
479,188	5,1
479,681	4,93
480,174	4,78
480,667	4,94
481,159	5,1
481,652	4,75
482,144	5,06
482,637	4,91
483,129	5,01
483,621	4,75
484,113	4,87
484,605	5
485,097	4,91
485,588	5,1
486,08	5,11
486,571	4,99
487,063	4,89
487,554	5,06
488,045	4,84
488,536	5,21
489,027	5,02
489,518	5,11
490,008	5,17
490,499	5,37
490,989	5,01
491,48	5,14
491,97	5,19
492,46	5,06
492,95	5,3
493,44	5,22
493,93	5,3
494,419	5,36
494,909	5,35
495,398	5,28
495,888	5,3
496,377	5,43
496,866	5,49
497,355	5,47
497,844	5,36
498,333	5,58
498,821	5,68
499,31	5,64
499,798	5,68
500,287	5,91
500,775	5,72
501,263	5,95
501,751	5,92
502,239	6,06
502,727	5,92
503,215	6,3
503,702	6,32
504,19	6,23
504,677	6,28
505,164	6,47
505,651	6,36
506,139	6,55
506,625	6,65
507,112	6,71
507,599	6,8
508,086	7
508,572	7,18
509,058	7,2
509,545	7,29
510,031	7,29
510,517	7,48
511,003	7,57
511,489	7,75
511,974	7,94
512,46	7,96
512,946	8,17
513,431	8,26
513,916	8,42
514,401	8,5
514,887	8,61
515,371	8,73
515,856	8,89
516,341	8,94
516,826	9,32
517,31	9,57
517,795	9,66
518,279	9,78
518,763	10,07
519,247	10,07
519,731	10,42
520,215	10,66
520,699	10,92
521,182	10,65
521,666	11,01
522,149	11,32
522,633	11,45
523,116	11,6
523,599	11,92
524,082	12,19
524,565	12,41
525,048	12,51
525,53	12,55
526,013	12,73
526,495	12,82
526,978	13,09
527,46	13,11
527,942	13,47
528,424	13,46
528,906	13,78
529,388	13,63
529,87	13,9
530,351	14
530,833	14,28
531,314	14,3
531,795	14,32
532,277	14,28
532,758	14,55
533,238	14,55
533,719	14,61
534,2	14,75
534,681	15,05
535,161	15,06
535,642	14,85
536,122	15,14
536,602	15,23
537,082	15,51
537,562	15,27
538,042	15,39
538,522	15,34
539,001	15,49
539,481	15,6
539,96	15,32
540,44	15,51
540,919	15,73
541,398	15,69
541,877	15,67
542,356	16,12
542,835	15,74
543,313	15,82
543,792	16,05
544,27	16,07
544,749	15,88
545,227	16,02
545,705	16,06
546,183	15,8
546,661	16,15
547,139	16,03
547,616	16,13
548,094	16,34
548,571	16,18
549,049	16,14
549,526	16,19
550,003	16,28
550,48	16,49
550,957	16,51
551,434	16,27
551,911	16,46
552,387	16,31
552,864	16,65
553,34	16,38
553,817	16,51
554,293	16,57
554,769	16,49
555,245	16,36
555,721	16,49
556,197	16,71
556,672	16,56
557,148	16,56
557,623	16,22
558,099	16,35
558,574	16,31
559,049	16,41
559,524	16,27
559,999	16,47
560,474	16,41
560,948	16,32
561,423	16,48
561,897	16,2
562,372	16,22
562,846	16,05
563,32	15,9
563,794	15,9
564,268	15,95
564,742	15,69
565,216	15,87
565,69	15,5
566,163	15,59
566,636	15,35
567,11	15,25
567,583	15,12
568,056	15,13
568,529	14,79
569,002	14,9
569,475	14,56
569,947	14,55
570,42	14,6
570,892	14,55
571,365	14,38
571,837	14,35
572,309	14,07
572,781	13,92
573,253	13,77
573,725	13,96
574,197	13,67
574,668	13,55
575,14	13,58
575,611	13,51
576,082	13,19
576,554	13,14
577,025	13,18
577,496	13,11
577,967	13,19
578,437	12,99
578,908	13,03
579,379	12,82
579,849	12,77
580,319	12,7
580,79	12,44
581,26	12,64
581,73	12,54
582,2	12,32
582,669	12,39
583,139	12,07
583,609	12,18
584,078	11,98
584,548	12,02
585,017	12,14
585,486	11,84
585,955	12,08
586,424	11,78
586,893	11,7
587,362	11,77
587,83	11,64
588,299	11,58
588,767	11,51
589,236	11,33
589,704	11,55
590,172	11,39
590,64	11,49
591,108	11,55
591,576	11,39
592,043	11,27
592,511	11,13
592,978	11,27
593,446	11,14
593,913	11,19
594,38	11,13
594,847	10,94
595,314	11,12
595,781	11,02
596,248	11
596,715	10,95
597,181	10,9
597,647	10,82
598,114	10,91
598,58	10,96
599,046	10,72
599,512	10,92
599,978	10,82
600,444	10,66
600,91	10,77
601,375	10,72
601,841	10,81
602,306	10,63
602,771	10,76
603,236	10,66
603,702	10,58
604,167	10,61
604,631	10,64
605,096	10,54
605,561	10,43
606,025	10,35
606,49	10,42
606,954	10,37
607,418	10,34
607,882	10,21
608,347	10,17
608,81	10,3
609,274	10,18
609,738	10,2
610,202	10,22
610,665	9,89
611,128	10,04
611,592	10,05
612,055	9,88
612,518	9,76
612,981	9,7
613,444	9,58
613,907	9,69
614,369	9,73
614,832	9,59
615,294	9,62
615,757	9,66
616,219	9,48
616,681	9,46
617,143	9,26
617,605	9,24
618,067	9,27
618,529	9,21
618,99	9,13
619,452	9,29
619,913	9,23
620,375	9,26
620,836	9,11
621,297	9,14
621,758	9,03
622,219	8,98
622,68	9
623,14	8,93
623,601	8,76
624,061	8,81
624,522	8,9
624,982	8,78
625,442	8,76
625,902	8,81
626,362	8,78
626,822	8,69
627,282	8,7
627,742	8,86
628,201	8,73
628,661	8,74
629,12	8,69
629,579	8,85
630,038	8,75
630,497	8,85
630,956	8,65
631,415	8,75
631,874	8,54
632,332	8,48
632,791	8,67
633,249	8,43
633,708	8,63
634,166	8,57
634,624	8,42
635,082	8,46
635,54	8,39
635,998	8,31
636,455	8,26
636,913	8,22
637,37	8,2
637,828	8,17
638,285	8,16
638,742	8,04
639,199	7,97
639,656	7,83
640,113	7,84
640,57	7,67
641,027	7,76
641,483	7,54
641,94	7,53
642,396	7,48
642,852	7,43
643,309	7,36
643,765	7,26
644,221	7,22
644,676	7,08
645,132	7,06
645,588	6,96
646,043	6,89
646,499	6,81
646,954	6,69
647,409	6,66
647,864	6,69
648,319	6,61
648,774	6,52
649,229	6,58
649,684	6,48
650,139	6,48
650,593	6,37
651,047	6,36
651,502	6,4
651,956	6,38
652,41	6,37
652,864	6,28
653,318	6,33
653,772	6,25
654,225	6,31
654,679	6,18
655,133	6,15
655,586	6,17
656,039	6,17
656,492	6,11
656,946	6,08
657,399	6,08
657,851	5,97
658,304	5,99
658,757	5,88
659,209	5,97
659,662	5,92
660,114	5,76
660,567	5,72
661,019	5,71
661,471	5,72
661,923	5,65
662,375	5,58
662,826	5,64
663,278	5,51
663,73	5,53
664,181	5,44
664,632	5,38
665,084	5,37
665,535	5,29
665,986	5,31
666,437	5,34
666,888	5,28
667,338	5,22
667,789	5,34
668,24	5,23
668,69	5,25
669,14	5,23
669,591	5,21
670,041	5,14
670,491	5,19
670,941	5,16
671,391	5,2
671,84	5,17
672,29	5,18
672,74	5,35
673,189	5,27
673,638	5,34
674,088	5,21
674,537	5,28
674,986	5,34
675,435	5,35
675,883	5,39
676,332	5,4
676,781	5,36
677,229	5,38
677,678	5,53
678,126	5,52
678,574	5,51
679,022	5,63
679,47	5,72
679,918	5,73
680,366	5,77
680,814	5,77
681,261	5,85
681,709	5,91
682,156	5,99
682,604	6,02
683,051	6
683,498	6,19
683,945	6,2
684,392	6,33
684,839	6,29
685,286	6,41
685,732	6,59
686,179	6,72
686,625	6,73
687,071	6,9
687,518	7,07
687,964	7,08
688,41	7,41
688,856	7,53
689,301	7,59
689,747	7,76
690,193	7,89
690,638	8,18
691,084	8,52
691,529	8,63
691,974	8,87
692,419	9,06
692,864	9,37
693,309	9,65
693,754	10,1
694,199	10,36
694,643	10,7
695,088	10,92
695,532	11,31
695,977	11,73
696,421	12,12
696,865	12,55
697,309	12,86
697,753	13,2
698,197	13,67
698,64	14,06
699,084	14,64
699,527	15,03
699,971	15,35
700,414	15,9
700,857	16,22
701,3	16,68
701,743	17,01
702,186	17,5
702,629	17,96
703,072	18,48
703,515	18,94
703,957	19,35
704,399	19,97
704,842	20,26
705,284	20,6
705,726	20,96
706,168	21,42
706,61	22,04
707,052	22,35
707,494	22,76
707,935	23,06
708,377	23,79
708,818	24,19
709,26	24,56
709,701	24,97
710,142	25,45
710,583	25,53
711,024	26,05
711,465	26,59
711,905	27,18
712,346	27,43
712,787	27,81
713,227	28,31
713,667	28,74
714,108	29,38
714,548	29,52
714,988	30,04
715,428	30,47
715,868	31,03
716,307	31,52
716,747	31,8
717,186	32,23
717,626	32,56
718,065	33,06
718,504	33,55
718,944	34,21
719,383	34,55
719,822	34,86
720,261	35,42
720,699	35,89
721,138	36,22
721,576	36,63
722,015	37,23
722,453	37,32
722,892	37,89
723,33	38,22
723,768	38,65
724,206	39,29
724,644	39,34
725,081	40,08
725,519	40,53
725,957	40,9
726,394	40,94
726,832	41,78
727,269	41,86
727,706	42,29
728,143	42,46
728,58	42,84
729,017	43,41
729,454	43,56
729,89	44,2
730,327	44,15
730,764	44,49
731,2	45,3
731,636	45,41
732,072	45,73
732,509	45,92
732,945	46,34
733,38	46,6
733,816	46,95
734,252	47,4
734,688	47,23
735,123	47,91
735,559	48,02
735,994	48,51
736,429	48,7
736,864	48,87
737,299	49,26
737,734	49,29
738,169	49,39
738,604	49,68
739,038	49,83
739,473	50,01
739,907	50,5
740,342	50,42
740,776	50,61
741,21	50,94
741,644	51,32
742,078	51,4
742,512	51,18
742,946	51,86
743,379	51,78
743,813	51,95
744,246	52,11
744,68	52,09
745,113	52,56
745,546	52,53
745,979	52,56
746,412	52,39
746,845	52,91
747,278	53,02
747,711	52,75
748,143	53,13
748,576	53,16
749,008	53,52
749,441	53,18
749,873	53,37
750,305	53,61
750,737	53,56
751,169	53,72
751,601	53,93
752,032	53,51
752,464	53,69
752,896	53,99
753,327	53,94
753,758	54,01
754,19	54
754,621	54,25
755,052	54,27
755,483	54,44
755,914	54,45
756,344	54,32
756,775	54,4
757,206	54,67
757,636	54,48
758,066	54,35
758,497	54,59
758,927	54,53
759,357	54,58
759,787	54,75
760,217	54,55
760,647	54,39
761,076	54,62
761,506	54,66
761,935	54,88
762,365	54,77
762,794	54,82
763,223	54,84
763,653	55
764,082	54,96
764,51	54,77
764,939	54,91
765,368	54,9
765,797	55,07
766,225	55,12
766,654	54,93
767,082	54,8
767,51	54,92
767,938	55,05
768,367	54,93
768,795	54,79
769,222	55,05
769,65	55,22
770,078	55,01
770,505	55,36
770,933	55,28
771,36	55,03
771,788	55,08
772,215	55,26
772,642	55,44
773,069	55,36
773,496	55,33
773,923	55,25
774,349	55,43
774,776	55,11
775,203	55,17
775,629	55,34
776,055	55,45
776,482	55,52
776,908	55,19
777,334	55,37
777,76	55,04
778,186	55,1
778,611	55,38
779,037	55,25
779,463	55,18
779,888	55,14
780,314	55,35
780,739	55,56
781,164	55,47
781,589	55,31
782,014	55,2
782,439	55,65
782,864	55,32
783,289	55,2
783,713	55,67
784,138	55,59
784,562	55,35
784,987	55,53
785,411	55,74
785,835	55,67
786,259	55,61
786,683	55,52
787,107	55,64
787,531	55,6
787,954	55,67
788,378	55,91
788,802	55,72
789,225	55,55
789,648	55,74
790,071	55,74
790,495	55,67
790,918	56,01
791,34	55,6
791,763	55,58
792,186	55,59
792,609	55,74
793,031	55,88
793,454	55,74
793,876	56,11
794,298	55,95
794,721	55,77
795,143	55,81
795,565	55,87
795,986	55,92
796,408	55,88
796,83	55,65
797,252	55,93
797,673	55,95
798,094	55,94
798,516	56,09
798,937	55,93
799,358	56,16
799,779	55,98
800,2	56,03
800,621	55,92
801,042	56,18
801,462	56,1
801,883	56,28
802,303	56,25
802,724	56,1
803,144	56,32
803,564	56,41
803,984	56,07
804,404	56,24
804,824	56,12
805,244	56,43
805,664	56,21
806,084	56,13
806,503	56,24
806,923	56,28
807,342	55,93
807,761	56,4
808,18	56,48
808,599	56,11
809,018	56,49
809,437	56,24
809,856	55,99
810,275	56,21
810,693	56,38
811,112	56,72
811,53	56,44
811,949	56,41
812,367	56,41
812,785	56,65
813,203	56,34
813,621	56,25
814,039	56,34
814,457	56,62
814,874	56,1
815,292	56,64
815,709	57,02
816,127	56,43
816,544	56,59
816,961	56,58
817,378	56,77
817,795	56,74
818,212	56,45
818,629	56,68
819,046	56,8
819,462	56,87
819,879	56,8
820,295	56,86
820,712	56,46
821,128	56,7
821,544	56,65
821,96	56,82
822,376	56,92
822,792	56,79
823,208	56,57
823,624	56,86
824,039	56,94
824,455	57,15
824,87	57,02
825,286	57,07
825,701	57,04
826,116	57,38
826,531	56,72
826,946	56,99
827,361	57,14
827,776	57,14
828,19	57,38
828,605	57,19
829,02	56,5
829,434	57,01
829,848	56,86
830,263	57,12
830,677	57,18
831,091	57,3
831,505	56,91
831,919	57,43
832,332	56,79
832,746	57,22
833,16	57,04
833,573	57,39
833,987	57,14
834,4	57,48
834,813	57,34
835,226	57,12
835,639	57,36
836,052	57,22
836,465	57,71
836,878	57,76
837,29	57,48
837,703	57,45
838,116	57,47
838,528	57,39
838,94	57,47
839,352	57,33
839,765	57,46
840,177	57,08
840,589	57,32
841	57,38
841,412	57,4
841,824	57,61
842,235	57,29
842,647	57,43
843,058	57,66
843,47	57,52
843,881	57,47
844,292	57,78
844,703	57,55
845,114	57,79
845,525	57,57
845,935	57,67
846,346	57,75
846,757	57,75
847,167	57,53
847,577	57,75
847,988	57,96
848,398	57,94
848,808	57,98
849,218	57,83
849,628	57,72
850,038	57,92
850,448	57,89
850,857	58,32
851,267	57,67
851,676	58,03
852,086	57,98
852,495	57,81
852,904	57,92
853,313	57,83
853,722	57,83
854,131	58,21
854,54	57,88
854,949	57,98
855,357	58,17
855,766	57,85
856,174	58,21
856,583	57,91
856,991	58,14
857,399	58,16
857,807	58,28
858,215	58,44
858,623	58,34
859,031	58,57
859,439	57,93
859,846	58,04
860,254	58,49
860,661	58,15
861,069	58,22
861,476	58,25
861,883	58,38
862,29	58,37
862,697	58,42
863,104	58,17
863,511	58,59
863,918	58,54
864,325	58,36
864,731	58,66
865,138	58,49
865,544	58,32
865,95	58,66
866,357	58,29
866,763	58,71
867,169	58,7
867,575	58,5
867,98	58,52
868,386	58,47
868,792	58,62
869,197	58,56
869,603	58,73
870,008	58,28
870,414	58,57
870,819	58,31
871,224	58,99
871,629	58,41
872,034	58,52
872,439	58,72
872,844	58,21
873,248	58,85
873,653	58,37
874,057	58,97
874,462	58,47
874,866	59
875,27	58,76
875,674	58,6
876,078	58,7
876,482	58,69
876,886	58,87
877,29	58,83
877,694	58,46
878,097	58,87
878,501	59,08
878,904	59,05
879,308	58,51
879,711	58,76
880,114	58,56
880,517	58,52
880,92	58,88
881,323	58,59
881,726	59
882,128	58,65
882,531	59,08
882,934	59,27
883,336	58,96
883,738	59,09
884,141	58,8
884,543	58,79
884,945	59,13
885,347	58,74
885,749	59,05
886,151	58,94
886,552	58,93
886,954	58,92
887,355	59,2
887,757	59,5
888,158	59,03
888,56	58,86
888,961	59,54
889,362	59,19
889,763	58,73
890,164	59,49
890,565	59,54
890,965	59
891,366	59,2
891,767	59,42
892,167	59,34
892,567	58,83
892,968	59,14
893,368	59,04
893,768	59,65
894,168	59,17
894,568	59,32
894,968	59,16
895,368	59,67
895,767	59,33
896,167	59,2
896,566	59,35
896,966	59,61
897,365	59,19
897,764	59,76
898,164	59,2
898,563	59,24
898,962	59,38
899,361	59,5
899,759	59,38
900,158	59,61
900,557	59,45
900,955	59,6
901,354	59,49
901,752	59,53
902,15	59,67
902,548	59,66
902,947	59,35
903,345	59,54
903,742	59,66
904,14	59,48
904,538	59,94
904,936	59,42
905,333	59,61
905,731	59,66
906,128	59,61
906,525	59,96
906,923	59,44
907,32	60,05
907,717	59,49
908,114	59,6
908,511	59,54
908,907	59,26
909,304	59,45
909,701	59,62
910,097	59,63
910,494	59,74
910,89	59,79
911,286	59,82
911,682	59,64
912,078	59,65
912,474	59,72
912,87	59,49
913,266	59,65
913,662	59,69
914,058	59,75
914,453	59,93
914,849	60,25
915,244	59,72
915,639	59,64
916,034	59,71
916,43	60,12
916,825	59,6
917,22	59,57
917,614	59,84
918,009	59,59
918,404	60,17
918,798	60,35
919,193	59,79
919,587	59,59
919,982	60,26
920,376	59,69
920,77	60,02
921,164	60,2
921,558	59,89
921,952	59,68
922,346	60,27
922,74	60,09
923,133	59,21
923,527	59,89
923,92	60,31
924,314	60,38
924,707	59,87
925,1	60,07
925,493	59,92
925,886	60,05
926,279	60,05
926,672	60,31
927,065	59,88
927,457	59,88
927,85	59,59
928,243	59,57
928,635	59,93
929,027	59,49
929,42	59,93
929,812	59,83
930,204	59,38
930,596	59,78
930,988	59,59
931,379	59,63
931,771	59,77
932,163	59,97
932,554	59,71
932,946	59,11
933,337	59,25
933,729	59,57
934,12	59,89
934,511	59,29
934,902	59,99
935,293	59,41
935,684	59,71
936,075	59,27
936,465	59,77
936,856	59,53
937,246	58,96
937,637	59,8
938,027	59,73
938,417	58,85
938,808	59,9
939,198	59,31
939,588	59,14
939,978	59,35
940,368	59,5
940,757	59,26
941,147	59,08
941,537	58,37
941,926	59,02
942,315	58,49
942,705	58,8
943,094	60,04
943,483	59,75
943,872	59,4
944,261	59,01
944,65	59,33
945,039	59,12
945,428	59
945,816	59,27
946,205	58,99
946,593	58,59
946,982	58,95
947,37	58,42
947,758	58,83
948,146	59,2
948,534	59,17
948,922	58,11
949,31	58,14
949,698	58,05
950,086	58,86
950,473	58,63
950,861	58,3
951,248	58,53
951,636	58,11
952,023	58,07
952,41	58,74
952,797	58,44
953,184	58,25
953,571	58,25
953,958	58,65
954,345	58,53
954,731	57,62
955,118	57,46
955,505	57,86
955,891	57,81
956,277	58,1
956,664	57,26
957,05	58,2
957,436	57,68
957,822	58,5
958,208	57,63
958,594	57,77
958,979	57,65
959,365	57,58
959,751	58,34
960,136	57,94
960,522	57,73
960,907	57,86
961,292	58,01
961,677	57,66
962,062	57,56
962,447	57,2
962,832	57,28
963,217	57,3
963,602	57,3
963,986	57,08
964,371	57,42
964,756	56,85
965,14	57,31
965,524	57,83
965,908	57,27
966,293	57,4
966,677	57,27
967,061	57,63
967,445	57,4
967,828	57,68
968,212	57,42
968,596	57,69
968,979	57,52
969,363	57,07
969,746	57,46
970,129	57,58
970,513	57,49
970,896	57,58
971,279	57,43
971,662	57,41
972,045	57,62
972,428	57,6
972,81	57,33
973,193	57,25
973,575	57,39
973,958	57,33
974,34	57,56
974,723	57,8
975,105	57,5
975,487	57,9
975,869	57,67
976,251	57,46
976,633	57,25
977,015	57,75
977,396	58,24
977,778	57,68
978,16	57,02
978,541	57,65
978,922	58,05
979,304	57,68
979,685	58,15
980,066	58,19
980,447	57,57
980,828	58,24
981,209	58,03
981,59	57,69
981,97	57,51
982,351	58,5
982,732	58
983,112	57,63
983,493	57,8
983,873	58
984,253	57,57
984,633	57,93
985,013	57,69
985,393	57,36
985,773	57,7
986,153	57,88
986,533	57,83
986,912	57,91
987,292	58,28
987,671	57,83
988,051	57,62
988,43	57,81
988,809	58,29
989,188	58,1
989,567	58,27
989,946	58,42
990,325	58,37
990,704	58,26
991,083	58,46
991,461	58,41
991,84	57,47
992,218	57,99
992,597	58,16
992,975	58,01
993,353	58,2
993,732	58,56
994,11	57,75
994,488	58,47
994,866	57,83
995,243	57,62
995,621	57,9
995,999	58,6
996,376	58,09
996,754	58,21
997,131	57,77
997,509	58,34
997,886	58,2
998,263	58,3
998,64	58,51
999,017	58,78
999,394	58,98
999,771	58,27
1000,148	58,21
1000,524	58,66
1000,901	58,77
1001,277	58,64
1001,654	59,57
1002,03	58,69
1002,406	58,84
1002,783	59,17
1003,159	58,73
1003,535	58,65
1003,911	58,26
1004,286	58,58
1004,662	58,81
1005,038	58,05
1005,414	59,27
1005,789	58,75
1006,164	58,76
1006,54	58,31
1006,915	59,74
1007,29	59,22
1007,665	58,7
1008,04	59,83
1008,415	58,89
1008,79	59,31
1009,165	59,37
1009,54	58,59
1009,914	59,22
1010,289	59,57
1010,663	58,96
1011,038	59,5
1011,412	58,68
1011,786	58,89
1012,16	59,47
1012,535	59,43
1012,909	59,71
1013,282	59,65
1013,656	58,86
1014,03	58,86
1014,404	59,61
1014,777	58,58
1015,151	59,99
1015,524	59,51
1015,897	59,22
1016,271	59,67
1016,644	59,79
1017,017	59,91
1017,39	59,33
1017,763	59,59
1018,136	58,95
1018,508	59,93
1018,881	60,06
1019,254	59,49
1019,626	59,19
1019,999	59,54
1020,371	60,1
1020,743	59,99
1021,116	59,26
1021,488	60,33
1021,86	59,68
1022,232	59,95
1022,604	59,48
1022,975	60,13
1023,347	60,53
1023,719	60,82
1024,09	60,38
1024,462	60,82
1024,833	60,68
1025,204	60,48
1025,576	58,82
1025,947	59,94
1026,318	59,86
1026,689	60,17
1027,06	60,64
1027,431	60,62
1027,801	59,75
1028,172	59,96
1028,543	59,64
1028,913	60,62
1029,284	60,5
1029,654	59,6
1030,024	60,54
1030,394	60
1030,764	60,03
1031,135	59,77
1031,504	60,22
1031,874	60,86
1032,244	59,55
1032,614	60,35
1032,983	60,57
1033,353	60,69
1033,722	60,13
1034,092	60,66
1034,461	60,78
1034,83	60,15
1035,2	60,25
1035,569	60,18
1035,938	60,78
1036,307	61,2
1036,675	60,94
1037,044	61,22
1037,413	61,4
1037,781	60,65
1038,15	61,07
1038,518	61,45
1038,887	61,39
1039,255	61,36
1039,623	61
1039,991	61,2
1040,359	61,43
1040,727	59,91
1041,095	61,13
1041,463	59,92
1041,831	61,04
1042,198	61,19
1042,566	60,44
1042,933	60,83
1043,301	60,79
1043,668	60,92
1044,035	60,95
1044,402	62,07
1044,77	60,99
1045,137	61,06
1045,503	61,11
1045,87	61,63
1046,237	62,14
1046,604	61,86
1046,97	61,24
1047,337	60,34
1047,703	61,48
1048,07	61,45
1048,436	62,16
1048,802	59,91
1049,168	60,62
1049,534	61,35
1049,9	60,85
1050,266	61,89
1050,632	60,51
1050,998	61,44
1051,364	61,64
1051,729	61,32
1052,095	61,25
1052,46	62,4
1052,825	61,11
1053,191	62,6
1053,556	60,93
1053,921	61,67
1054,286	60,75
1054,651	60,86
1055,016	61,32
1055,381	62,23
1055,745	62,11
1056,11	60,96
1056,475	61,47
1056,839	61,78
1057,203	61,67
1057,568	61,17
1057,932	61,78
1058,296	61,44
1058,66	62,12
1059,024	60,49
1059,388	61,2
1059,752	61,72
1060,116	61,83
1060,48	62,13
1060,843	61,5
1061,207	62,54
1061,57	60,67
1061,934	61,7
1062,297	60,98
1062,66	62,09
1063,023	61,12
1063,386	62,43
1063,749	61,32
1064,112	60,96
1064,475	61,18
1064,838	60,95
1065,201	62,09
1065,563	60,04
1065,926	61,48
1066,288	62,07
1066,651	62,32
1067,013	61,76
1067,375	61,86
1067,737	60,3
1068,099	62,15
1068,461	62,3
1068,823	61,41
1069,185	61,9
1069,547	63,51
1069,909	62,52
1070,27	62,54
1070,632	60,86
1070,993	61,88
1071,355	61,96
1071,716	61,25
1072,077	61,48
1072,438	61,76
1072,799	61,19
1073,16	61,3
1073,521	61,53
1073,882	62,76
1074,243	61,73
1074,603	61,16
1074,964	63,47
1075,325	61,66
1075,685	61,45
1076,045	61,66
1076,406	61,13
1076,766	61,03
1077,126	61,9
1077,486	61,26
1077,846	61,26
1078,206	61,07
1078,566	62,36
1078,925	61,61
1079,285	61,27
1079,645	62,05
1080,004	62,73
1080,364	62,41
1080,723	61,66
1081,082	61,41
1081,442	61,64
1081,801	60,89
1082,16	62,83
1082,519	62,47
1082,878	60,59
1083,237	62,31
1083,595	60,91
1083,954	61,74
1084,313	61,15
1084,671	61,2
1085,03	61,66
1085,388	62,92
1085,746	62,82
1086,104	62,91
1086,463	61,76
1086,821	62,26
1087,179	62,89
1087,537	64,05
1087,894	62,44
1088,252	61,47
1088,61	61,8
1088,967	61,63
1089,325	64,24
1089,682	59,41
1090,04	61,94
1090,397	61,92
1090,754	62,16
1091,111	63,22
1091,469	63,3
1091,826	61,66
1092,182	61,32
1092,539	62,96
1092,896	59,67
1093,253	60,88
1093,609	62,3
1093,966	61,98
1094,322	61,35
1094,679	61,96
1095,035	63,57
1095,391	62,83
1095,748	60,34
1096,104	62,1
1096,46	60,1
1096,816	61,03
1097,171	62,8
1097,527	62,13
1097,883	62,95
1098,239	64,31
1098,594	60,34
1098,95	60,24
1099,305	62,58
1099,66	60,67
1100,016	61,65
1100,371	60,68
1100,726	61,08
1101,081	62,49
1101,436	60,41
1101,791	63,24
1102,146	59,96
1102,5	61,9
1102,855	62,04
1103,21	61,92
1103,564	60,24
1103,918	62,63
1104,273	62,2
1104,627	60,41
1104,981	60,75
1105,335	62,82
1105,69	61,36
1106,043	64,97
1106,397	57,95
1106,751	62,58
1107,105	61,72
1107,459	63,16
1107,812	61,32
1108,166	60,78
1108,519	62,92
1108,873	62,51
1109,226	60,83
1109,579	60,18
1109,932	60,51
1110,285	59,71
1110,638	61,34
1110,991	62,88
1111,344	64,61
1111,697	60,9
1112,05	63,62
1112,402	63,14
1112,755	64,08
1113,107	61,85
1113,46	61,36
1113,812	63
1114,164	65,28
1114,517	64,69
1114,869	80,49
1115,221	72,67
1115,573	73,19
1115,924	77,6
