Data from Relative__4__12-29-14-768.txt Node

Date: Fri Feb 02 12:29:14 CET 2024
User: diatiterra
Spectrometer: HDX00911
Trigger mode: 0
Integration Time (sec): 6,000000E-3
Scans to average: 2
Nonlinearity correction enabled: false
Boxcar width: 0
Storing dark spectrum: false
XAxis mode: Wavelengths
Number of Pixels in Spectrum: 2068
>>>>>Begin Spectral Data<<<<<
194,468	60,32
195,025	59,31
195,581	66,98
196,138	57,58
196,694	61,81
197,251	64,34
197,807	59,04
198,363	54,69
198,919	52,22
199,474	55,91
200,03	50,48
200,586	53,31
201,141	49,52
201,696	62,11
202,251	62,07
202,806	56,77
203,361	52,81
203,916	50,3
204,471	54,02
205,025	49,7
205,58	54,98
206,134	51,52
206,688	51,88
207,242	55,25
207,796	57,77
208,35	51,67
208,904	49,54
209,457	51,95
210,011	57,47
210,564	56,96
211,117	53,61
211,67	56,59
212,223	51,29
212,776	53,29
213,329	58,2
213,881	51,68
214,434	58,98
214,986	60,06
215,538	55,7
216,09	52,92
216,642	52,32
217,194	51,83
217,746	53,97
218,297	54,95
218,849	52,46
219,4	57,86
219,951	55,26
220,502	60,61
221,053	60
221,604	60,44
222,155	52,26
222,705	56,65
223,256	60,21
223,806	57,65
224,356	62,46
224,906	51,58
225,456	50,17
226,006	54,11
226,556	53,21
227,106	54,8
227,655	52,47
228,204	55,62
228,754	53,31
229,303	60
229,852	57,55
230,401	59,62
230,949	55,45
231,498	51,9
232,047	59,12
232,595	56,44
233,143	48,8
233,691	55,77
234,239	57,45
234,787	54,3
235,335	52,94
235,883	53,98
236,43	53,92
236,978	55,59
237,525	56,29
238,072	50,46
238,619	54,06
239,166	52,43
239,713	63,89
240,26	59,32
240,806	51,77
241,353	62,05
241,899	48,72
242,445	54,11
242,991	51,62
243,537	48,77
244,083	54,02
244,629	48,44
245,174	58,65
245,72	54,4
246,265	54,7
246,81	57,1
247,355	61,62
247,9	50,82
248,445	51,29
248,99	56,54
249,534	53,77
250,079	58,88
250,623	57,58
251,168	54,76
251,712	52,6
252,256	59,73
252,8	47,5
253,343	59,62
253,887	54,26
254,43	45,03
254,974	51,97
255,517	52,67
256,06	58,33
256,603	57,09
257,146	57,52
257,689	56,95
258,232	59,52
258,774	56,16
259,317	56,82
259,859	56
260,401	55,59
260,943	54,95
261,485	54,09
262,027	51,94
262,569	53,47
263,11	45,45
263,652	59,04
264,193	56,66
264,734	56,64
265,275	55,02
265,816	59,8
266,357	52,4
266,898	53,69
267,438	58,48
267,979	56,99
268,519	61,04
269,059	57,79
269,6	61,33
270,14	55,29
270,68	64,79
271,219	50
271,759	58,8
272,298	49,52
272,838	59,49
273,377	59,8
273,916	63,14
274,455	53,66
274,994	64,44
275,533	54,77
276,072	61,66
276,61	55,8
277,149	60,07
277,687	55,81
278,225	64,46
278,763	59,52
279,301	58,99
279,839	51
280,377	60,9
280,914	56,54
281,452	59,8
281,989	63,88
282,526	58,16
283,064	63,08
283,601	58,7
284,137	57,88
284,674	55,19
285,211	52,58
285,747	57,73
286,284	66,1
286,82	52,22
287,356	65,84
287,892	60,36
288,428	56,69
288,964	56,32
289,5	53,12
290,035	50,68
290,571	58,22
291,106	58,19
291,641	54,08
292,176	51,89
292,711	59,73
293,246	51,59
293,781	53,71
294,315	52,11
294,85	51,48
295,384	58,78
295,918	61,15
296,453	52,08
296,987	45,33
297,52	57,3
298,054	58,3
298,588	55,82
299,121	51,06
299,655	50,49
300,188	55
300,721	51,85
301,254	56,18
301,787	49,31
302,32	56,36
302,853	56,08
303,385	56,47
303,918	54,2
304,45	58,2
304,982	52,48
305,514	54,37
306,046	54,85
306,578	50,88
307,11	50,18
307,641	53,4
308,173	56,2
308,704	59,32
309,236	51,19
309,767	53,08
310,298	52,7
310,829	51,26
311,359	51,96
311,89	49,66
312,421	48,99
312,951	50,79
313,481	60,3
314,012	58,18
314,542	55,52
315,072	51,46
315,601	50,64
316,131	55,33
316,661	55,03
317,19	55,92
317,72	51,31
318,249	56,94
318,778	59,01
319,307	61,99
319,836	55,8
320,365	52,01
320,893	58,3
321,422	53
321,95	53,45
322,479	54,7
323,007	48,96
323,535	54,37
324,063	47,28
324,591	53,5
325,118	45,02
325,646	55,04
326,173	46,15
326,701	61,97
327,228	53,31
327,755	53,11
328,282	49,18
328,809	54,86
329,336	49,65
329,862	51,1
330,389	46,38
330,915	55,7
331,441	43,45
331,968	54,7
332,494	48,52
333,02	47,62
333,545	49,54
334,071	45,91
334,597	50,64
335,122	51,27
335,648	54,22
336,173	49,84
336,698	47,94
337,223	48,39
337,748	45,51
338,272	47,5
338,797	49,67
339,322	37,61
339,846	43,21
340,37	50,92
340,894	39,94
341,419	50,32
341,942	49,36
342,466	48,16
342,99	54,27
343,514	45,83
344,037	43,82
344,56	40,06
345,084	44,69
345,607	40,79
346,13	51,31
346,653	40,8
347,175	44,23
347,698	50,14
348,221	48,04
348,743	42,74
349,265	49,33
349,787	40,56
350,309	41,57
350,831	39,85
351,353	39,8
351,875	43,9
352,397	40,51
352,918	37,94
353,439	34,57
353,961	41,48
354,482	39,54
355,003	40,76
355,524	41,43
356,044	46,73
356,565	39,05
357,086	39,2
357,606	38,57
358,126	43,19
358,646	39,52
359,167	36,5
359,687	36,42
360,206	36,14
360,726	36,68
361,246	38,82
361,765	37,08
362,285	33,62
362,804	36,55
363,323	38,76
363,842	36,16
364,361	41,87
364,88	34,22
365,398	39,84
365,917	37,67
366,435	34,94
366,954	31,49
367,472	34,09
367,99	37,41
368,508	34,54
369,026	34,09
369,544	33,98
370,061	33,99
370,579	29,26
371,096	33,51
371,613	33,88
372,131	34,17
372,648	28,57
373,165	32,22
373,681	31,45
374,198	28,62
374,715	31,6
375,231	30,71
375,747	34,2
376,264	33,13
376,78	32,74
377,296	31,94
377,812	29,44
378,327	32,94
378,843	31,97
379,359	26,12
379,874	29,97
380,389	30,51
380,905	26,68
381,42	29,37
381,935	29,1
382,449	27,01
382,964	25,52
383,479	26,69
383,993	26
384,508	23,89
385,022	26,55
385,536	24,69
386,05	24,9
386,564	27,62
387,078	24,65
387,592	23,97
388,105	27,72
388,619	26,83
389,132	24,32
389,645	23,77
390,158	20,75
390,671	23,23
391,184	22,94
391,697	23,87
392,21	23,78
392,722	23,54
393,235	20,47
393,747	23,34
394,259	21,09
394,771	21,26
395,283	21,41
395,795	22,11
396,307	21,61
396,818	20,61
397,33	22,37
397,841	19,45
398,353	21,63
398,864	20,37
399,375	18,91
399,886	18,69
400,397	18,22
400,907	17,71
401,418	18,74
401,928	18,66
402,439	18,8
402,949	18,18
403,459	18,12
403,969	16,83
404,479	16,7
404,989	15,79
405,498	16,02
406,008	15,14
406,517	15,07
407,027	13,54
407,536	14,77
408,045	13,87
408,554	14,29
409,063	14,09
409,572	13,49
410,08	12,03
410,589	12,27
411,097	11,76
411,606	11,61
412,114	10,57
412,622	10,79
413,13	10,76
413,638	9,77
414,145	8,64
414,653	9,11
415,16	9,44
415,668	9,13
416,175	8,68
416,682	8,72
417,189	9,27
417,696	8,31
418,203	8,15
418,71	8,73
419,216	8,36
419,723	7,69
420,229	7,53
420,735	7,2
421,242	7,54
421,748	7,42
422,254	7,08
422,759	7,63
423,265	7,71
423,771	7,57
424,276	7,53
424,781	7,26
425,287	7,07
425,792	7
426,297	6,83
426,802	7,03
427,306	6,9
427,811	7,21
428,316	6,8
428,82	7,13
429,324	6,9
429,829	6,64
430,333	7,17
430,837	6,49
431,34	6,84
431,844	6,43
432,348	6,6
432,851	6,47
433,355	6,48
433,858	6,32
434,361	6,29
434,864	6,07
435,367	6,28
435,87	6,53
436,373	6,81
436,876	6,41
437,378	6,32
437,88	5,93
438,383	6,49
438,885	6,06
439,387	6,27
439,889	6,09
440,391	5,97
440,892	5,82
441,394	6,36
441,896	6,05
442,397	6,2
442,898	6,21
443,399	6,38
443,9	6,16
444,401	6,18
444,902	6,17
445,403	6,51
445,903	5,95
446,404	6,46
446,904	6,2
447,405	6,24
447,905	6,22
448,405	6,42
448,905	5,99
449,404	6,5
449,904	6,52
450,404	6,31
450,903	6,12
451,403	6,57
451,902	6,72
452,401	6,7
452,9	6,68
453,399	6,75
453,898	6,51
454,396	6,69
454,895	7,04
455,393	6,75
455,892	7,04
456,39	6,57
456,888	7,02
457,386	6,76
457,884	6,97
458,382	6,91
458,879	6,86
459,377	6,97
459,874	6,92
460,372	6,72
460,869	6,8
461,366	7,13
461,863	7,13
462,36	6,93
462,857	6,71
463,353	7,05
463,85	7,17
464,346	6,82
464,843	6,62
465,339	6,91
465,835	6,77
466,331	7,08
466,827	7,13
467,323	7,18
467,818	6,69
468,314	6,71
468,809	6,82
469,305	7,07
469,8	6,95
470,295	7,23
470,79	7,05
471,285	6,77
471,78	6,86
472,274	7,24
472,769	6,75
473,263	6,99
473,758	6,95
474,252	6,98
474,746	6,95
475,24	6,61
475,734	6,97
476,228	6,83
476,721	7,02
477,215	6,98
477,708	7
478,202	6,82
478,695	6,96
479,188	7,14
479,681	6,97
480,174	6,79
480,667	6,8
481,159	7,25
481,652	7,35
482,144	7,06
482,637	7,43
483,129	7,07
483,621	7,18
484,113	6,98
484,605	7,46
485,097	7,41
485,588	7,33
486,08	7,16
486,571	7,39
487,063	7,41
487,554	7,34
488,045	7,24
488,536	7,42
489,027	7,63
489,518	7,6
490,008	7,64
490,499	7,61
490,989	7,78
491,48	7,56
491,97	7,69
492,46	7,64
492,95	7,86
493,44	7,74
493,93	8,08
494,419	7,87
494,909	8,09
495,398	7,97
495,888	8,41
496,377	8,28
496,866	8,23
497,355	8,51
497,844	8,42
498,333	8,73
498,821	8,74
499,31	8,56
499,798	8,72
500,287	8,86
500,775	9,03
501,263	9,22
501,751	9,24
502,239	9,32
502,727	9,56
503,215	9,65
503,702	9,83
504,19	9,96
504,677	10,02
505,164	10,09
505,651	10,57
506,139	10,53
506,625	10,54
507,112	10,87
507,599	11,1
508,086	11,08
508,572	11,29
509,058	11,54
509,545	11,84
510,031	11,89
510,517	12,29
511,003	12,06
511,489	12,54
511,974	12,85
512,46	13,17
512,946	13,21
513,431	13,67
513,916	13,76
514,401	13,88
514,887	14,22
515,371	14,22
515,856	15,06
516,341	15,19
516,826	15,47
517,31	15,44
517,795	15,86
518,279	15,97
518,763	16,52
519,247	16,53
519,731	17
520,215	17,22
520,699	17,61
521,182	17,76
521,666	17,81
522,149	17,94
522,633	18,86
523,116	18,85
523,599	19,22
524,082	19,35
524,565	19,46
525,048	19,89
525,53	20,2
526,013	20,14
526,495	20,48
526,978	20,89
527,46	20,86
527,942	21,05
528,424	21,37
528,906	21,6
529,388	21,92
529,87	22,41
530,351	22,15
530,833	22,58
531,314	22,69
531,795	22,62
532,277	23,08
532,758	23,02
533,238	23,01
533,719	23,28
534,2	23,37
534,681	23,62
535,161	23,23
535,642	23,23
536,122	23,6
536,602	23,84
537,082	24
537,562	23,85
538,042	23,91
538,522	24,03
539,001	24,13
539,481	24,08
539,96	23,98
540,44	24,12
540,919	24,57
541,398	24,47
541,877	24,62
542,356	24,62
542,835	24,48
543,313	24,23
543,792	24,82
544,27	24,55
544,749	24,95
545,227	24,8
545,705	24,9
546,183	24,83
546,661	24,98
547,139	25,13
547,616	25,16
548,094	25,04
548,571	25,11
549,049	25,04
549,526	25,24
550,003	25
550,48	25,4
550,957	25,32
551,434	25,26
551,911	25,36
552,387	25,78
552,864	25,48
553,34	25,46
553,817	25,41
554,293	25,62
554,769	25,97
555,245	25,67
555,721	25,63
556,197	25,49
556,672	25,24
557,148	25,51
557,623	25,57
558,099	25,67
558,574	25,96
559,049	25,54
559,524	25,57
559,999	25,82
560,474	25,71
560,948	25,47
561,423	25,15
561,897	25,09
562,372	25,12
562,846	25,15
563,32	25,05
563,794	24,93
564,268	24,81
564,742	24,48
565,216	24,45
565,69	24,42
566,163	24,55
566,636	24,16
567,11	24,25
567,583	24,01
568,056	23,99
568,529	23,74
569,002	23,53
569,475	23,6
569,947	23,36
570,42	23,27
570,892	23,12
571,365	22,89
571,837	22,64
572,309	22,3
572,781	22,38
573,253	22,28
573,725	22,03
574,197	22,18
574,668	21,76
575,14	21,81
575,611	21,69
576,082	21,44
576,554	21,45
577,025	21,1
577,496	21,11
577,967	20,91
578,437	20,78
578,908	20,86
579,379	20,7
579,849	20,48
580,319	20,36
580,79	20,31
581,26	20,45
581,73	20,05
582,2	20,1
582,669	19,84
583,139	19,91
583,609	19,59
584,078	19,67
584,548	19,54
585,017	19,63
585,486	19,63
585,955	19,2
586,424	19,22
586,893	19,08
587,362	18,95
587,83	18,91
588,299	18,89
588,767	18,82
589,236	18,8
589,704	18,85
590,172	18,87
590,64	18,61
591,108	18,78
591,576	18,5
592,043	18,48
592,511	18,3
592,978	18,41
593,446	18,46
593,913	18,21
594,38	18,11
594,847	17,96
595,314	18,19
595,781	18,25
596,248	18,18
596,715	17,96
597,181	17,94
597,647	18,02
598,114	17,86
598,58	17,74
599,046	17,91
599,512	17,85
599,978	17,74
600,444	17,79
600,91	17,59
601,375	17,71
601,841	17,63
602,306	17,63
602,771	17,56
603,236	17,52
603,702	17,55
604,167	17,37
604,631	17,42
605,096	17,35
605,561	17,39
606,025	17,28
606,49	17,05
606,954	17,01
607,418	16,95
607,882	17,07
608,347	16,92
608,81	16,55
609,274	16,67
609,738	16,64
610,202	16,74
610,665	16,36
611,128	16,33
611,592	16,54
612,055	16,24
612,518	16,3
612,981	16,21
613,444	16,12
613,907	16,02
614,369	15,97
614,832	15,78
615,294	15,92
615,757	15,7
616,219	15,66
616,681	15,65
617,143	15,51
617,605	15,29
618,067	15,35
618,529	15,34
618,99	15,12
619,452	15
619,913	14,93
620,375	14,91
620,836	15,12
621,297	14,92
621,758	14,94
622,219	14,91
622,68	14,73
623,14	14,71
623,601	14,71
624,061	14,53
624,522	14,54
624,982	14,51
625,442	14,55
625,902	14,59
626,362	14,46
626,822	14,41
627,282	14,48
627,742	14,51
628,201	14,42
628,661	14,38
629,12	14,35
629,579	14,36
630,038	14,32
630,497	14,28
630,956	14,46
631,415	14,2
631,874	14,17
632,332	14,06
632,791	14,22
633,249	14,1
633,708	13,96
634,166	14,08
634,624	14,06
635,082	13,88
635,54	13,87
635,998	13,7
636,455	13,75
636,913	13,57
637,37	13,54
637,828	13,3
638,285	13,31
638,742	13,3
639,199	13,21
639,656	13
640,113	12,87
640,57	12,8
641,027	12,61
641,483	12,56
641,94	12,34
642,396	12,36
642,852	12,33
643,309	11,97
643,765	11,95
644,221	11,75
644,676	11,65
645,132	11,41
645,588	11,53
646,043	11,37
646,499	11,04
646,954	11,13
647,409	10,98
647,864	10,92
648,319	10,66
648,774	10,72
649,229	10,66
649,684	10,53
650,139	10,52
650,593	10,4
651,047	10,29
651,502	10,27
651,956	10,23
652,41	10,17
652,864	10,11
653,318	10,05
653,772	10,08
654,225	9,89
654,679	9,84
655,133	9,89
655,586	10,01
656,039	9,72
656,492	9,7
656,946	9,73
657,399	9,43
657,851	9,54
658,304	9,54
658,757	9,47
659,209	9,36
659,662	9,1
660,114	9,03
660,567	9,04
661,019	8,93
661,471	8,82
661,923	8,79
662,375	8,61
662,826	8,51
663,278	8,4
663,73	8,42
664,181	8,25
664,632	8,15
665,084	8,15
665,535	8,09
665,986	7,96
666,437	7,84
666,888	7,77
667,338	7,8
667,789	7,71
668,24	7,68
668,69	7,69
669,14	7,61
669,591	7,63
670,041	7,5
670,491	7,52
670,941	7,52
671,391	7,57
671,84	7,52
672,29	7,46
672,74	7,45
673,189	7,5
673,638	7,49
674,088	7,51
674,537	7,5
674,986	7,62
675,435	7,64
675,883	7,67
676,332	7,72
676,781	7,77
677,229	7,76
677,678	7,9
678,126	7,91
678,574	7,86
679,022	8,06
679,47	8,09
679,918	8,13
680,366	8,31
680,814	8,35
681,261	8,41
681,709	8,43
682,156	8,67
682,604	8,74
683,051	8,79
683,498	8,9
683,945	9,13
684,392	9,26
684,839	9,39
685,286	9,57
685,732	9,7
686,179	10,04
686,625	10,14
687,071	10,29
687,518	10,65
687,964	10,8
688,41	11,03
688,856	11,48
689,301	11,74
689,747	12,02
690,193	12,49
690,638	12,74
691,084	13,17
691,529	13,57
691,974	13,9
692,419	14,4
692,864	14,88
693,309	15,37
693,754	15,73
694,199	16,15
694,643	16,92
695,088	17,2
695,532	17,72
695,977	18,4
696,421	18,76
696,865	19,31
697,309	19,91
697,753	20,26
698,197	21,07
698,64	21,41
699,084	21,96
699,527	22,46
699,971	23,11
700,414	23,75
700,857	24,2
701,3	24,67
701,743	25,29
702,186	25,87
702,629	26,58
703,072	26,77
703,515	27,29
703,957	27,95
704,399	28,46
704,842	29,03
705,284	29,46
705,726	29,92
706,168	30,53
706,61	30,97
707,052	31,41
707,494	31,91
707,935	32,67
708,377	32,66
708,818	33,48
709,26	33,88
709,701	34,3
710,142	34,86
710,583	35,17
711,024	35,62
711,465	36,4
711,905	36,86
712,346	37,04
712,787	37,68
713,227	38,21
713,667	38,58
714,108	39,1
714,548	39,45
714,988	40,31
715,428	40,65
715,868	41,19
716,307	41,5
716,747	42,01
717,186	42,24
717,626	42,92
718,065	43,16
718,504	43,94
718,944	44,2
719,383	44,47
719,822	45,24
720,261	45,71
720,699	45,75
721,138	46,64
721,576	47,11
722,015	47,09
722,453	47,57
722,892	48,18
723,33	48,4
723,768	48,95
724,206	49,27
724,644	49,88
725,081	50,16
725,519	50,24
725,957	50,34
726,394	51,13
726,832	51,68
727,269	51,59
727,706	52,07
728,143	52,31
728,58	52,94
729,017	53,2
729,454	53,17
729,89	53,74
730,327	53,94
730,764	54,47
731,2	54,47
731,636	54,78
732,072	55,05
732,509	55,43
732,945	55,65
733,38	55,64
733,816	55,82
734,252	56,37
734,688	56,28
735,123	56,42
735,559	56,88
735,994	56,97
736,429	57,08
736,864	57,36
737,299	57,48
737,734	57,8
738,169	57,96
738,604	58,22
739,038	58,39
739,473	58,6
739,907	58,48
740,342	58,79
740,776	58,9
741,21	58,93
741,644	58,8
742,078	59,09
742,512	59,3
742,946	59,36
743,379	59,63
743,813	59,66
744,246	59,66
744,68	59,53
745,113	59,48
745,546	59,55
745,979	60,23
746,412	59,95
746,845	60,33
747,278	60,25
747,711	59,93
748,143	60,07
748,576	60,43
749,008	60,23
749,441	60,32
749,873	60,34
750,305	60,41
750,737	60,47
751,169	60,17
751,601	60,49
752,032	60,67
752,464	60,88
752,896	60,77
753,327	60,18
753,758	60,37
754,19	60,4
754,621	60,73
755,052	60,83
755,483	60,81
755,914	60,48
756,344	60,76
756,775	60,56
757,206	60,5
757,636	60,71
758,066	60,67
758,497	60,65
758,927	61,11
759,357	60,96
759,787	60,61
760,217	60,55
760,647	60,71
761,076	60,65
761,506	60,67
761,935	61,04
762,365	60,53
762,794	61,01
763,223	60,42
763,653	60,71
764,082	60,94
764,51	60,89
764,939	60,88
765,368	61,07
765,797	60,75
766,225	60,96
766,654	60,7
767,082	60,8
767,51	60,82
767,938	60,53
768,367	60,89
768,795	60,7
769,222	60,85
769,65	60,92
770,078	60,78
770,505	60,77
770,933	60,71
771,36	61,09
771,788	61,13
772,215	60,83
772,642	61,04
773,069	60,62
773,496	60,67
773,923	60,53
774,349	61,07
774,776	61,1
775,203	60,64
775,629	60,63
776,055	61,08
776,482	61,03
776,908	61,07
777,334	60,7
777,76	60,94
778,186	61,04
778,611	60,97
779,037	61,33
779,463	60,77
779,888	60,92
780,314	61,01
780,739	60,79
781,164	61
781,589	60,72
782,014	61,07
782,439	61,07
782,864	60,78
783,289	60,68
783,713	60,77
784,138	61
784,562	60,92
784,987	61
785,411	61,01
785,835	60,94
786,259	60,92
786,683	60,8
787,107	60,83
787,531	61,33
787,954	61,17
788,378	61,42
788,802	61,34
789,225	61,04
789,648	60,93
790,071	61,1
790,495	61,23
790,918	61,27
791,34	61,43
791,763	61,24
792,186	61,44
792,609	60,95
793,031	61,15
793,454	61,25
793,876	61
794,298	61,41
794,721	61,23
795,143	61,23
795,565	60,82
795,986	61,2
796,408	61,17
796,83	61,37
797,252	61,32
797,673	61,57
798,094	61,6
798,516	61,1
798,937	61,66
799,358	61,28
799,779	61,4
800,2	61,1
800,621	61,72
801,042	61,4
801,462	61,47
801,883	61,42
802,303	61,14
802,724	61,09
803,144	61,69
803,564	61,22
803,984	61,61
804,404	61,54
804,824	61,43
805,244	61,49
805,664	61,77
806,084	61,76
806,503	61,53
806,923	61,73
807,342	61,34
807,761	61,37
808,18	61,89
808,599	61,27
809,018	61,35
809,437	61,55
809,856	61,61
810,275	61,51
810,693	61,86
811,112	61,47
811,53	61,47
811,949	61,73
812,367	61,44
812,785	61,83
813,203	61,8
813,621	61,42
814,039	61,75
814,457	61,98
814,874	61,55
815,292	61,79
815,709	61,84
816,127	61,32
816,544	61,46
816,961	61,82
817,378	61,6
817,795	61,44
818,212	61,48
818,629	61,86
819,046	61,54
819,462	61,51
819,879	61,62
820,295	61,55
820,712	61,83
821,128	61,51
821,544	61,84
821,96	61,39
822,376	62,07
822,792	61,87
823,208	61,5
823,624	61,79
824,039	61,82
824,455	61,92
824,87	61,81
825,286	62,03
825,701	62
826,116	61,46
826,531	61,75
826,946	61,75
827,361	61,84
827,776	62,09
828,19	61,8
828,605	61,6
829,02	61,5
829,434	61,7
829,848	61,95
830,263	61,84
830,677	61,55
831,091	61,75
831,505	61,96
831,919	62
832,332	62,08
832,746	61,83
833,16	61,51
833,573	61,64
833,987	61,7
834,4	62,09
834,813	62,09
835,226	61,91
835,639	61,97
836,052	61,75
836,465	61,86
836,878	61,82
837,29	61,61
837,703	61,7
838,116	61,95
838,528	61,73
838,94	61,85
839,352	61,61
839,765	61,56
840,177	61,83
840,589	61,57
841	61,61
841,412	62,07
841,824	61,91
842,235	61,94
842,647	61,81
843,058	61,77
843,47	61,98
843,881	61,62
844,292	62,08
844,703	61,67
845,114	61,62
845,525	61,5
845,935	61,89
846,346	61,98
846,757	62,24
847,167	61,72
847,577	62,05
847,988	62,14
848,398	62,31
848,808	61,89
849,218	62,21
849,628	61,71
850,038	62,01
850,448	62,03
850,857	61,69
851,267	61,97
851,676	62,12
852,086	61,79
852,495	61,67
852,904	61,88
853,313	61,92
853,722	62,16
854,131	62,06
854,54	61,97
854,949	62,01
855,357	61,95
855,766	61,97
856,174	62,07
856,583	61,7
856,991	62,2
857,399	61,97
857,807	61,96
858,215	61,88
858,623	62,12
859,031	62,32
859,439	62,41
859,846	61,97
860,254	62,13
860,661	62,15
861,069	62,01
861,476	62,14
861,883	62,11
862,29	61,81
862,697	62,72
863,104	62,11
863,511	61,78
863,918	62,16
864,325	61,96
864,731	62,02
865,138	62,14
865,544	62,33
865,95	62,5
866,357	61,88
866,763	62,38
867,169	62,35
867,575	62,65
867,98	62,61
868,386	62,62
868,792	62,24
869,197	62,61
869,603	62,35
870,008	62,25
870,414	62,23
870,819	62,58
871,224	62,87
871,629	62,69
872,034	62,73
872,439	61,98
872,844	62,62
873,248	62,4
873,653	62,23
874,057	62,57
874,462	62,14
874,866	62,91
875,27	62,5
875,674	62,52
876,078	62,63
876,482	62,75
876,886	62,6
877,29	62,69
877,694	62,66
878,097	62,8
878,501	62,83
878,904	62,59
879,308	62,69
879,711	62,91
880,114	62,67
880,517	62,65
880,92	63
881,323	62,74
881,726	62,45
882,128	63,12
882,531	62,95
882,934	63,34
883,336	62,8
883,738	62,95
884,141	63,16
884,543	62,89
884,945	62,85
885,347	63,2
885,749	63,01
886,151	63,43
886,552	63,23
886,954	63,16
887,355	63,05
887,757	62,85
888,158	63,29
888,56	63,14
888,961	63,12
889,362	63,26
889,763	63,13
890,164	63,23
890,565	63,23
890,965	63,26
891,366	63,16
891,767	63,07
892,167	63,03
892,567	63,27
892,968	63,42
893,368	63,63
893,768	63,43
894,168	63,67
894,568	63,36
894,968	63,8
895,368	63,41
895,767	63,54
896,167	63,17
896,566	63,77
896,966	63,34
897,365	63,61
897,764	63,57
898,164	63,71
898,563	63,8
898,962	63,68
899,361	63,7
899,759	63,95
900,158	63,74
900,557	63,93
900,955	63,85
901,354	63,7
901,752	63,43
902,15	63,54
902,548	64,2
902,947	63,71
903,345	64,18
903,742	63,86
904,14	63,97
904,538	64,19
904,936	63,92
905,333	63,61
905,731	63,62
906,128	64,41
906,525	63,62
906,923	63,67
907,32	64,35
907,717	63,82
908,114	64,24
908,511	63,96
908,907	64,37
909,304	63,91
909,701	64,29
910,097	64,54
910,494	64,16
910,89	64,23
911,286	64,51
911,682	63,95
912,078	63,96
912,474	63,89
912,87	63,9
913,266	63,71
913,662	64,61
914,058	64,29
914,453	64,27
914,849	64,5
915,244	64,18
915,639	64,54
916,034	64,67
916,43	63,72
916,825	63,95
917,22	63,92
917,614	64,52
918,009	64,19
918,404	64,27
918,798	64,62
919,193	64,46
919,587	64,71
919,982	64,42
920,376	64,42
920,77	64,25
921,164	64,53
921,558	64,25
921,952	64,42
922,346	64,48
922,74	64,32
923,133	64,23
923,527	64,34
923,92	64,03
924,314	64,25
924,707	64,31
925,1	64,24
925,493	64,75
925,886	64,52
926,279	64,27
926,672	64,56
927,065	64,44
927,457	64,28
927,85	63,98
928,243	64,75
928,635	64,63
929,027	63,95
929,42	64,4
929,812	64,32
930,204	64,19
930,596	64,99
930,988	64,6
931,379	64,62
931,771	64,74
932,163	64,01
932,554	63,93
932,946	64,45
933,337	64,21
933,729	64,5
934,12	64,76
934,511	64,47
934,902	63,87
935,293	64,53
935,684	64,36
936,075	63,95
936,465	64,45
936,856	63,87
937,246	64,5
937,637	63,84
938,027	63,98
938,417	63,66
938,808	63,81
939,198	64,5
939,588	64,03
939,978	64,22
940,368	63,45
940,757	64,33
941,147	63,78
941,537	64,78
941,926	63,81
942,315	63,86
942,705	64,68
943,094	63,67
943,483	64,35
943,872	64,09
944,261	62,89
944,65	63,77
945,039	63,89
945,428	63,28
945,816	64,21
946,205	64,44
946,593	64,07
946,982	63,51
947,37	63,22
947,758	64,51
948,146	63,79
948,534	63,5
948,922	63,45
949,31	63,55
949,698	63,37
950,086	63,52
950,473	63,65
950,861	62,96
951,248	63,08
951,636	63,24
952,023	63,55
952,41	63,77
952,797	63,69
953,184	63,34
953,571	63,76
953,958	63,53
954,345	63,56
954,731	62,92
955,118	63,2
955,505	62,89
955,891	63,23
956,277	63,07
956,664	62,92
957,05	62,88
957,436	62,55
957,822	62,88
958,208	63,1
958,594	62,71
958,979	62,65
959,365	62,76
959,751	62,79
960,136	62,99
960,522	62,57
960,907	63,12
961,292	63,45
961,677	62,4
962,062	62,85
962,447	62,41
962,832	62,32
963,217	62,95
963,602	62,32
963,986	62,57
964,371	62,49
964,756	62,78
965,14	62,65
965,524	62,78
965,908	62,42
966,293	62,79
966,677	63,08
967,061	62,4
967,445	62,39
967,828	63,13
968,212	62,76
968,596	62,43
968,979	62,87
969,363	62,51
969,746	63,01
970,129	63,02
970,513	62,73
970,896	62,64
971,279	61,96
971,662	62,9
972,045	63,32
972,428	62,38
972,81	62,61
973,193	63,13
973,575	62,91
973,958	62,42
974,34	63,07
974,723	62,54
975,105	62,9
975,487	62,67
975,869	63,02
976,251	62,62
976,633	63,17
977,015	62,6
977,396	62,77
977,778	62,81
978,16	62,91
978,541	62,4
978,922	63,16
979,304	62,42
979,685	62,81
980,066	62,17
980,447	63,27
980,828	62,93
981,209	62,68
981,59	63,24
981,97	62,93
982,351	62,77
982,732	63,11
983,112	62,49
983,493	63,22
983,873	62,73
984,253	62,66
984,633	62,46
985,013	62,88
985,393	63,06
985,773	62,83
986,153	63,35
986,533	62,78
986,912	62,65
987,292	62,65
987,671	62,81
988,051	63,14
988,43	62,8
988,809	62,96
989,188	62,79
989,567	63,14
989,946	62,72
990,325	62,7
990,704	62,74
991,083	62,5
991,461	62,7
991,84	63,76
992,218	62,72
992,597	61,99
992,975	63,24
993,353	63,29
993,732	63,16
994,11	63,49
994,488	63,17
994,866	63,37
995,243	63,18
995,621	62,55
995,999	63,47
996,376	63,07
996,754	63,6
997,131	63,62
997,509	63,03
997,886	62,59
998,263	62,88
998,64	63,58
999,017	63,17
999,394	63,46
999,771	62,91
1000,148	63,03
1000,524	62,71
1000,901	63,19
1001,277	63,43
1001,654	63,43
1002,03	63,45
1002,406	63,75
1002,783	63,31
1003,159	63,63
1003,535	63,65
1003,911	63,53
1004,286	63,93
1004,662	63,72
1005,038	63,49
1005,414	63,58
1005,789	63,49
1006,164	63,66
1006,54	63,81
1006,915	63,3
1007,29	63,42
1007,665	64,04
1008,04	63,75
1008,415	63,23
1008,79	64,07
1009,165	63,6
1009,54	64,23
1009,914	64,51
1010,289	63,6
1010,663	63,54
1011,038	63,51
1011,412	63,3
1011,786	64,02
1012,16	64,54
1012,535	62,78
1012,909	63,03
1013,282	64,29
1013,656	63,4
1014,03	63,79
1014,404	63,78
1014,777	63,34
1015,151	64,03
1015,524	63,68
1015,897	63,98
1016,271	63,55
1016,644	64,49
1017,017	64,37
1017,39	63,63
1017,763	62,58
1018,136	62,71
1018,508	63,2
1018,881	63,64
1019,254	63,14
1019,626	63,78
1019,999	63,67
1020,371	64,06
1020,743	64,33
1021,116	63,79
1021,488	63,95
1021,86	64,2
1022,232	63,23
1022,604	63,57
1022,975	63,94
1023,347	64,21
1023,719	63,09
1024,09	64,76
1024,462	64,4
1024,833	63,54
1025,204	63,88
1025,576	65,7
1025,947	64,21
1026,318	64,32
1026,689	64,51
1027,06	63,12
1027,431	63,75
1027,801	64,21
1028,172	64,07
1028,543	64,19
1028,913	65,45
1029,284	64,29
1029,654	63,68
1030,024	63,88
1030,394	64,24
1030,764	63,61
1031,135	63,63
1031,504	64,16
1031,874	64,2
1032,244	64,83
1032,614	63,49
1032,983	63,27
1033,353	64,4
1033,722	64,18
1034,092	64,55
1034,461	64,14
1034,83	64,16
1035,2	63,93
1035,569	64,72
1035,938	64,58
1036,307	64,18
1036,675	64,42
1037,044	63,63
1037,413	64,94
1037,781	64,52
1038,15	63,68
1038,518	64,19
1038,887	63,88
1039,255	63,35
1039,623	63,33
1039,991	63,77
1040,359	63,7
1040,727	65,11
1041,095	64,62
1041,463	64,6
1041,831	64,63
1042,198	64,36
1042,566	64,35
1042,933	64,6
1043,301	64,09
1043,668	64,19
1044,035	64,2
1044,402	64,97
1044,77	63,73
1045,137	64,76
1045,503	64,43
1045,87	64,58
1046,237	63,47
1046,604	63,66
1046,97	64,64
1047,337	64,39
1047,703	64,74
1048,07	63,91
1048,436	66
1048,802	64,94
1049,168	65,15
1049,534	65,26
1049,9	64,76
1050,266	65,05
1050,632	65,04
1050,998	63,46
1051,364	64,3
1051,729	65,16
1052,095	64,75
1052,46	63,74
1052,825	64,6
1053,191	64,14
1053,556	63,81
1053,921	64,87
1054,286	64,15
1054,651	63,91
1055,016	64,31
1055,381	64,86
1055,745	64,84
1056,11	66,3
1056,475	63,97
1056,839	64,73
1057,203	65,31
1057,568	65,66
1057,932	65,75
1058,296	63,7
1058,66	65,87
1059,024	64,32
1059,388	65,12
1059,752	64,57
1060,116	65,67
1060,48	63,8
1060,843	64,14
1061,207	64,76
1061,57	64,27
1061,934	67,44
1062,297	63,53
1062,66	64,75
1063,023	62,31
1063,386	65,75
1063,749	66,36
1064,112	64,8
1064,475	64,73
1064,838	64,92
1065,201	64,74
1065,563	65,02
1065,926	64,48
1066,288	63,84
1066,651	63,13
1067,013	65,04
1067,375	63,44
1067,737	65,57
1068,099	65,33
1068,461	64,43
1068,823	65,54
1069,185	64,1
1069,547	63,76
1069,909	64,31
1070,27	64,51
1070,632	64,5
1070,993	64,48
1071,355	64,45
1071,716	65,18
1072,077	65,17
1072,438	65,74
1072,799	64,03
1073,16	64,12
1073,521	64,84
1073,882	64,44
1074,243	65,98
1074,603	65,9
1074,964	66,18
1075,325	64,3
1075,685	64,79
1076,045	64,52
1076,406	64,35
1076,766	65,71
1077,126	65,11
1077,486	64,84
1077,846	64,73
1078,206	64,67
1078,566	64,79
1078,925	63,61
1079,285	64,46
1079,645	63,94
1080,004	65,17
1080,364	63,29
1080,723	65,01
1081,082	63,39
1081,442	67,29
1081,801	65,16
1082,16	64,01
1082,519	62,78
1082,878	62,9
1083,237	67,04
1083,595	64
1083,954	65,4
1084,313	62,57
1084,671	63,82
1085,03	62,98
1085,388	64,99
1085,746	63,52
1086,104	64,64
1086,463	63,5
1086,821	65,96
1087,179	63,84
1087,537	65,93
1087,894	65,82
1088,252	65,4
1088,61	66,7
1088,967	64,53
1089,325	63
1089,682	66,04
1090,04	64,57
1090,397	66,65
1090,754	64,02
1091,111	65,42
1091,469	64,34
1091,826	63,29
1092,182	63,36
1092,539	65,69
1092,896	66,04
1093,253	65,84
1093,609	65,01
1093,966	64,64
1094,322	66,81
1094,679	62,08
1095,035	65,44
1095,391	67,34
1095,748	65,31
1096,104	64,97
1096,46	62,06
1096,816	66,53
1097,171	64,14
1097,527	64,84
1097,883	63,35
1098,239	67,15
1098,594	63,99
1098,95	67,35
1099,305	63,43
1099,66	64,85
1100,016	61,78
1100,371	63,56
1100,726	62,53
1101,081	63,1
1101,436	64,6
1101,791	64,65
1102,146	64,34
1102,5	62,41
1102,855	63,19
1103,21	61,8
1103,564	65,05
1103,918	64,99
1104,273	62,92
1104,627	61,91
1104,981	63,27
1105,335	64,72
1105,69	63,74
1106,043	67,96
1106,397	64,21
1106,751	67,3
1107,105	63,48
1107,459	64,3
1107,812	65,99
1108,166	63,99
1108,519	64,95
1108,873	60,95
1109,226	62,98
1109,579	64,7
1109,932	63,29
1110,285	67,69
1110,638	59,65
1110,991	63,61
1111,344	68,12
1111,697	64,27
1112,05	63,29
1112,402	62,41
1112,755	63,78
1113,107	63,71
1113,46	64,7
1113,812	62,94
1114,164	63,29
1114,517	63,42
1114,869	71,03
1115,221	70,18
1115,573	82,69
1115,924	71,43
