Data from I2__Relative__1__00030.txt Node

Date: Fri Feb 02 12:36:27 CET 2024
User: diatiterra
Spectrometer: HDX00911
Trigger mode: 0
Integration Time (sec): 6,000000E-3
Scans to average: 2
Nonlinearity correction enabled: false
Boxcar width: 0
Storing dark spectrum: false
XAxis mode: Wavelengths
Number of Pixels in Spectrum: 2068
>>>>>Begin Spectral Data<<<<<
194,468	100
195,025	57,93
195,581	72,64
196,138	74,24
196,694	65,83
197,251	77,05
197,807	71,59
198,363	62,81
198,919	60,76
199,474	64,86
200,03	54,31
200,586	52,37
201,141	54,92
201,696	59,94
202,251	64,26
202,806	53,03
203,361	56,88
203,916	58,88
204,471	62,38
205,025	58,88
205,58	54,68
206,134	61,28
206,688	69,97
207,242	54,63
207,796	61,49
208,35	54,41
208,904	57,19
209,457	50,97
210,011	62,34
210,564	63,11
211,117	58,93
211,67	63,17
212,223	64,52
212,776	57,05
213,329	58,52
213,881	74,16
214,434	62,57
214,986	66,45
215,538	61,89
216,09	61,51
216,642	57,62
217,194	64,63
217,746	59,93
218,297	76,11
218,849	65,25
219,4	63,57
219,951	58,56
220,502	61,28
221,053	69,64
221,604	66,3
222,155	62,26
222,705	64,87
223,256	71,97
223,806	64,5
224,356	66,67
224,906	65,51
225,456	65,45
226,006	56,01
226,556	67,31
227,106	60,68
227,655	60,19
228,204	57,69
228,754	64,67
229,303	67,33
229,852	68,35
230,401	66,56
230,949	65,42
231,498	65,4
232,047	67,23
232,595	58,75
233,143	59,58
233,691	66,35
234,239	62,61
234,787	67,35
235,335	52,29
235,883	65,74
236,43	56,86
236,978	65,13
237,525	61,32
238,072	58,2
238,619	59,69
239,166	54,05
239,713	69,1
240,26	53,42
240,806	62,06
241,353	71,29
241,899	64,42
242,445	57,53
242,991	62,99
243,537	47,02
244,083	61,74
244,629	57,81
245,174	63,14
245,72	55,7
246,265	69,46
246,81	61,06
247,355	59,93
247,9	61,31
248,445	60,32
248,99	61,44
249,534	64,38
250,079	62,83
250,623	58,92
251,168	62,24
251,712	65,91
252,256	63,09
252,8	62,19
253,343	62,78
253,887	58,99
254,43	55,63
254,974	65,79
255,517	60,33
256,06	69
256,603	62,84
257,146	64,71
257,689	61,36
258,232	73,81
258,774	68,49
259,317	53,25
259,859	65,67
260,401	59,54
260,943	66,55
261,485	65,12
262,027	56,45
262,569	61,72
263,11	53,57
263,652	64,51
264,193	69,97
264,734	66,43
265,275	63,32
265,816	59,46
266,357	63,36
266,898	64,77
267,438	61,94
267,979	64,34
268,519	63,64
269,059	60,21
269,6	65,33
270,14	66,89
270,68	67,96
271,219	62,08
271,759	59,14
272,298	61,34
272,838	61,09
273,377	65,88
273,916	64,16
274,455	65,85
274,994	68,15
275,533	60,07
276,072	72,33
276,61	64,13
277,149	66,43
277,687	64,12
278,225	64,46
278,763	61,25
279,301	63,31
279,839	56,67
280,377	65,74
280,914	61,13
281,452	60,47
281,989	75,29
282,526	66,67
283,064	67,38
283,601	58,39
284,137	64,73
284,674	61,36
285,211	58,97
285,747	63,57
286,284	68,84
286,82	64,16
287,356	72,24
287,892	63,64
288,428	57,75
288,964	63,9
289,5	71,18
290,035	58,45
290,571	60,62
291,106	53,85
291,641	60,2
292,176	59,45
292,711	65,44
293,246	62,74
293,781	58,3
294,315	67,05
294,85	65,57
295,384	68,46
295,918	59,8
296,453	56,6
296,987	64,33
297,52	61,68
298,054	65,37
298,588	57,53
299,121	59,86
299,655	57
300,188	66,79
300,721	59,93
301,254	66,14
301,787	56,6
302,32	59,11
302,853	63,51
303,385	65,83
303,918	58,74
304,45	59,81
304,982	58,51
305,514	63,12
306,046	61,54
306,578	64,31
307,11	63,1
307,641	60,88
308,173	53,28
308,704	63,39
309,236	58,02
309,767	61,64
310,298	55,24
310,829	62,45
311,359	58,5
311,89	57,24
312,421	60,07
312,951	55,84
313,481	65,92
314,012	56,73
314,542	62,41
315,072	56,43
315,601	57,69
316,131	64,6
316,661	57,38
317,19	59,21
317,72	54,9
318,249	62,5
318,778	67,49
319,307	63,86
319,836	60,87
320,365	53,48
320,893	53
321,422	56,33
321,95	63,45
322,479	60,28
323,007	65,28
323,535	60,52
324,063	55,59
324,591	64,34
325,118	62,38
325,646	64,39
326,173	57,86
326,701	68,31
327,228	61,92
327,755	60
328,282	57,05
328,809	64,93
329,336	61,81
329,862	53,29
330,389	58,22
330,915	59,06
331,441	57,24
331,968	59,06
332,494	52,79
333,02	60,2
333,545	54,43
334,071	55,97
334,597	52,24
335,122	52,53
335,648	51,95
336,173	56,03
336,698	53,65
337,223	54,19
337,748	55,45
338,272	56,88
338,797	59,48
339,322	44,04
339,846	50,71
340,37	46,13
340,894	47,48
341,419	48,41
341,942	53,82
342,466	50,61
342,99	47,87
343,514	47,78
344,037	48,6
344,56	46,49
345,084	46,09
345,607	48,42
346,13	51,9
346,653	47,13
347,175	44,23
347,698	49,3
348,221	49,72
348,743	45,7
349,265	49,6
349,787	43,1
350,309	40,73
350,831	46,78
351,353	47,19
351,875	46,75
352,397	45,57
352,918	39,11
353,439	39,75
353,961	43,95
354,482	42,86
355,003	45,57
355,524	43,22
356,044	42,29
356,565	46,02
357,086	38,53
357,606	41,57
358,126	47,18
358,646	44,05
359,167	41,47
359,687	42,32
360,206	32,95
360,726	43,45
361,246	35,86
361,765	42,16
362,285	39,79
362,804	43,91
363,323	38,97
363,842	36,78
364,361	37,31
364,88	40,16
365,398	35,11
365,917	36,29
366,435	34,94
366,954	32,87
367,472	35,59
367,99	35,56
368,508	37,76
369,026	33,15
369,544	36,8
370,061	32,38
370,579	29,26
371,096	32,99
371,613	31,57
372,131	33,09
372,648	32,1
373,165	34,06
373,681	30
374,198	30,66
374,715	32,52
375,231	31,65
375,747	34,85
376,264	29,77
376,78	30,83
377,296	28,18
377,812	27,78
378,327	30,6
378,843	29,52
379,359	26,83
379,874	26,26
380,389	29,37
380,905	28,8
381,42	27,22
381,935	27,08
382,449	24,6
382,964	25,4
383,479	23,72
383,993	22,89
384,508	26
385,022	24,37
385,536	23,54
386,05	21,97
386,564	23,65
387,078	21,92
387,592	20,78
388,105	21,29
388,619	22,49
389,132	20,28
389,645	20,6
390,158	20,07
390,671	21,28
391,184	18,87
391,697	19,19
392,21	18,98
392,722	18,99
393,235	19,86
393,747	19,78
394,259	19,25
394,771	18,7
395,283	17,46
395,795	19,3
396,307	17,88
396,818	16,27
397,33	17,35
397,841	17,39
398,353	17,18
398,864	16,06
399,375	15,65
399,886	14,67
400,397	13,71
400,907	14,81
401,418	15,38
401,928	15,32
402,439	15,92
402,949	13,3
403,459	15,29
403,969	14,01
404,479	12,8
404,989	12,33
405,498	11,94
406,008	12,47
406,517	12,47
407,027	11,16
407,536	11,83
408,045	10,43
408,554	11,46
409,063	9,62
409,572	10,22
410,08	9,75
410,589	9,28
411,097	8,8
411,606	8,62
412,114	8,3
412,622	7,84
413,13	8,14
413,638	8,05
414,145	6,65
414,653	7,54
415,16	6,6
415,668	6,86
416,175	6,72
416,682	6,94
417,189	6,2
417,696	6,44
418,203	6,11
418,71	5,8
419,216	6,02
419,723	5,98
420,229	5,67
420,735	5,84
421,242	5,68
421,748	5,47
422,254	5,26
422,759	5,92
423,265	5,43
423,771	5,75
424,276	5,59
424,781	4,99
425,287	5,19
425,792	5,2
426,297	5,26
426,802	5,13
427,306	5,43
427,811	5,16
428,316	5,21
428,82	5,24
429,324	5,16
429,829	4,85
430,333	4,94
430,837	4,64
431,34	5,02
431,844	5,26
432,348	5,13
432,851	4,49
433,355	4,74
433,858	4,81
434,361	4,62
434,864	4,8
435,367	4,83
435,87	4,63
436,373	4,67
436,876	4,69
437,378	4,84
437,88	4,26
438,383	4,71
438,885	4,43
439,387	4,43
439,889	4,47
440,391	4,38
440,892	4,4
441,394	4,17
441,896	4,56
442,397	4,22
442,898	4,17
443,399	4,4
443,9	4,27
444,401	4,14
444,902	4,21
445,403	4,4
445,903	4,24
446,404	4,49
446,904	4,03
447,405	4,37
447,905	4,4
448,405	4,59
448,905	4,25
449,404	4,57
449,904	4,4
450,404	4,27
450,903	4,34
451,403	4,39
451,902	4,59
452,401	4,01
452,9	4,43
453,399	4,31
453,898	4,33
454,396	4,26
454,895	4,58
455,393	4,13
455,892	4,71
456,39	4,55
456,888	4,57
457,386	4,36
457,884	4,27
458,382	4,6
458,879	4,06
459,377	4,6
459,874	4,75
460,372	4,22
460,869	4,47
461,366	4,29
461,863	4,32
462,36	4,47
462,857	4,17
463,353	4,35
463,85	4,4
464,346	4,29
464,843	4,43
465,339	4,45
465,835	4,35
466,331	4,5
466,827	4,49
467,323	4,38
467,818	4,39
468,314	4,3
468,809	4,37
469,305	4,35
469,8	4,29
470,295	4,22
470,79	4,17
471,285	4,28
471,78	4,3
472,274	4,29
472,769	4,34
473,263	4,13
473,758	4,22
474,252	4,51
474,746	4,49
475,24	4,22
475,734	4,46
476,228	4,26
476,721	4,25
477,215	4,24
477,708	4,33
478,202	4,07
478,695	4,45
479,188	4,4
479,681	4,39
480,174	4,24
480,667	4,46
481,159	4,24
481,652	4,55
482,144	4,13
482,637	4,37
483,129	4,25
483,621	4,42
484,113	4,25
484,605	4,52
485,097	4,31
485,588	4,57
486,08	4,31
486,571	4,29
487,063	4,42
487,554	4,35
488,045	4,53
488,536	4,44
489,027	4,6
489,518	4,45
490,008	4,34
490,499	4,32
490,989	4,61
491,48	4,52
491,97	4,61
492,46	4,48
492,95	4,52
493,44	4,61
493,93	4,76
494,419	4,77
494,909	4,81
495,398	4,68
495,888	4,54
496,377	4,83
496,866	4,85
497,355	4,7
497,844	5,05
498,333	5,01
498,821	4,97
499,31	4,86
499,798	5,26
500,287	5,18
500,775	5,29
501,263	5,25
501,751	5,47
502,239	5,46
502,727	5,51
503,215	5,74
503,702	5,75
504,19	5,9
504,677	6,06
505,164	5,85
505,651	6,12
506,139	6,26
506,625	6,46
507,112	6,43
507,599	6,65
508,086	6,77
508,572	7,01
509,058	7,09
509,545	7,29
510,031	7,37
510,517	7,52
511,003	7,93
511,489	7,91
511,974	8,14
512,46	8,39
512,946	8,8
513,431	8,78
513,916	9,01
514,401	9,26
514,887	9,45
515,371	9,86
515,856	9,91
516,341	10,36
516,826	10,34
517,31	10,8
517,795	10,95
518,279	11,32
518,763	11,67
519,247	11,7
519,731	11,92
520,215	12,43
520,699	12,85
521,182	13,11
521,666	13,34
522,149	13,43
522,633	14,32
523,116	14,47
523,599	14,65
524,082	14,78
524,565	15,12
525,048	15,32
525,53	15,67
526,013	15,99
526,495	16,38
526,978	16,76
527,46	16,94
527,942	17,33
528,424	17,25
528,906	17,41
529,388	17,82
529,87	18,18
530,351	18,27
530,833	18,62
531,314	18,54
531,795	18,97
532,277	19,29
532,758	19,31
533,238	19,59
533,719	19,88
534,2	19,55
534,681	19,84
535,161	20,04
535,642	19,88
536,122	20,21
536,602	20,03
537,082	20,22
537,562	20,42
538,042	20,48
538,522	20,44
539,001	20,81
539,481	20,52
539,96	20,73
540,44	20,84
540,919	21,27
541,398	20,87
541,877	21,18
542,356	20,88
542,835	21,11
543,313	20,94
543,792	21,44
544,27	21,26
544,749	21,59
545,227	21,49
545,705	21,32
546,183	21,73
546,661	21,51
547,139	21,8
547,616	21,65
548,094	21,44
548,571	21,75
549,049	22,03
549,526	21,77
550,003	21,77
550,48	22,13
550,957	21,88
551,434	21,96
551,911	22,01
552,387	22,13
552,864	21,95
553,34	21,83
553,817	22,02
554,293	21,98
554,769	22,36
555,245	22,38
555,721	22,1
556,197	21,75
556,672	21,98
557,148	21,77
557,623	22,1
558,099	21,94
558,574	21,97
559,049	21,52
559,524	21,66
559,999	21,92
560,474	21,49
560,948	21,63
561,423	21,4
561,897	21,26
562,372	21,2
562,846	20,91
563,32	20,8
563,794	20,78
564,268	20,42
564,742	20,51
565,216	20,33
565,69	20,14
566,163	20,01
566,636	19,83
567,11	19,9
567,583	19,38
568,056	19,38
568,529	18,99
569,002	18,68
569,475	18,88
569,947	18,47
570,42	18,2
570,892	18,34
571,365	18,07
571,837	17,45
572,309	17,66
572,781	17,47
573,253	17,14
573,725	17,04
574,197	16,86
574,668	16,75
575,14	16,55
575,611	16,26
576,082	16,3
576,554	16,1
577,025	15,92
577,496	15,87
577,967	15,54
578,437	15,51
578,908	15,52
579,379	15,33
579,849	15,21
580,319	15,14
580,79	14,92
581,26	14,62
581,73	14,59
582,2	14,47
582,669	14,44
583,139	14,31
583,609	14,17
584,078	14,12
584,548	14,09
585,017	13,94
585,486	14,02
585,955	13,72
586,424	13,68
586,893	13,53
587,362	13,33
587,83	13,23
588,299	13,2
588,767	13,3
589,236	13,3
589,704	13,2
590,172	12,91
590,64	12,98
591,108	12,84
591,576	12,79
592,043	12,69
592,511	12,52
592,978	12,44
593,446	12,54
593,913	12,66
594,38	12,49
594,847	12,28
595,314	12,53
595,781	12,54
596,248	12,22
596,715	12,37
597,181	12,21
597,647	12,29
598,114	12,46
598,58	12,13
599,046	12,17
599,512	11,97
599,978	12,12
600,444	12,06
600,91	11,88
601,375	11,97
601,841	12,01
602,306	12,05
602,771	11,79
603,236	11,69
603,702	11,91
604,167	11,64
604,631	11,69
605,096	11,7
605,561	11,48
606,025	11,46
606,49	11,59
606,954	11,38
607,418	11,36
607,882	11,11
608,347	11,01
608,81	10,91
609,274	11,06
609,738	10,95
610,202	10,83
610,665	10,83
611,128	10,81
611,592	10,57
612,055	10,72
612,518	10,52
612,981	10,46
613,444	10,22
613,907	10,2
614,369	10,14
614,832	10,21
615,294	9,94
615,757	9,97
616,219	9,85
616,681	9,67
617,143	9,8
617,605	9,75
618,067	9,59
618,529	9,65
618,99	9,57
619,452	9,31
619,913	9,42
620,375	9,35
620,836	9,19
621,297	9,14
621,758	9,13
622,219	9,12
622,68	9,08
623,14	9,09
623,601	9,04
624,061	9
624,522	8,91
624,982	8,92
625,442	8,87
625,902	8,82
626,362	8,81
626,822	8,88
627,282	8,82
627,742	8,81
628,201	8,81
628,661	8,89
629,12	8,86
629,579	8,79
630,038	8,81
630,497	8,61
630,956	8,7
631,415	8,73
631,874	8,63
632,332	8,68
632,791	8,61
633,249	8,61
633,708	8,62
634,166	8,38
634,624	8,48
635,082	8,42
635,54	8,37
635,998	8,23
636,455	8,18
636,913	8,04
637,37	8,01
637,828	7,89
638,285	7,75
638,742	7,79
639,199	7,7
639,656	7,59
640,113	7,54
640,57	7,52
641,027	7,31
641,483	7,27
641,94	7,08
642,396	7,03
642,852	7,03
643,309	6,82
643,765	6,75
644,221	6,69
644,676	6,61
645,132	6,47
645,588	6,37
646,043	6,36
646,499	6,19
646,954	6,22
647,409	6,11
647,864	5,89
648,319	5,98
648,774	5,86
649,229	5,76
649,684	5,81
650,139	5,71
650,593	5,7
651,047	5,69
651,502	5,54
651,956	5,58
652,41	5,46
652,864	5,52
653,318	5,52
653,772	5,52
654,225	5,47
654,679	5,43
655,133	5,45
655,586	5,48
656,039	5,45
656,492	5,39
656,946	5,3
657,399	5,27
657,851	5,19
658,304	5,15
658,757	5,14
659,209	5,16
659,662	5,07
660,114	5,01
660,567	5,06
661,019	5,02
661,471	4,94
661,923	4,84
662,375	4,88
662,826	4,88
663,278	4,79
663,73	4,85
664,181	4,82
664,632	4,81
665,084	4,71
665,535	4,78
665,986	4,7
666,437	4,74
666,888	4,69
667,338	4,78
667,789	4,71
668,24	4,73
668,69	4,78
669,14	4,72
669,591	4,76
670,041	4,84
670,491	4,9
670,941	4,86
671,391	4,9
671,84	4,88
672,29	4,93
672,74	5,05
673,189	5,08
673,638	5,09
674,088	5,23
674,537	5,31
674,986	5,31
675,435	5,3
675,883	5,45
676,332	5,5
676,781	5,57
677,229	5,63
677,678	5,77
678,126	5,74
678,574	5,88
679,022	5,9
679,47	6,08
679,918	6,11
680,366	6,19
680,814	6,34
681,261	6,47
681,709	6,43
682,156	6,5
682,604	6,65
683,051	6,73
683,498	6,8
683,945	7,08
684,392	6,97
684,839	7,08
685,286	7,29
685,732	7,27
686,179	7,41
686,625	7,54
687,071	7,62
687,518	7,75
687,964	7,83
688,41	7,87
688,856	8,06
689,301	8,33
689,747	8,48
690,193	8,8
690,638	9,16
691,084	9,36
691,529	9,74
691,974	10,19
692,419	10,58
692,864	10,88
693,309	11,41
693,754	11,83
694,199	12,33
694,643	12,91
695,088	13,51
695,532	13,97
695,977	14,49
696,421	15,25
696,865	15,75
697,309	16,47
697,753	17,06
698,197	17,73
698,64	18,25
699,084	19,17
699,527	19,67
699,971	20,45
700,414	20,99
700,857	21,73
701,3	22,38
701,743	23,18
702,186	23,66
702,629	24,55
703,072	24,96
703,515	25,76
703,957	26,22
704,399	26,9
704,842	27,73
705,284	28,16
705,726	29,16
706,168	29,76
706,61	30,1
707,052	30,71
707,494	31,48
707,935	32,3
708,377	32,74
708,818	33,59
709,26	34,08
709,701	34,77
710,142	35,56
710,583	35,93
711,024	36,43
711,465	37,24
711,905	37,83
712,346	38,47
712,787	39,05
713,227	39,62
713,667	40,37
714,108	40,91
714,548	41,45
714,988	42,1
715,428	42,74
715,868	43,27
716,307	43,79
716,747	44,53
717,186	44,79
717,626	45,5
718,065	45,98
718,504	46,85
718,944	46,88
719,383	47,58
719,822	48,42
720,261	48,85
720,699	49,1
721,138	49,95
721,576	50,24
722,015	50,62
722,453	51,25
722,892	51,32
723,33	51,97
723,768	52,47
724,206	52,95
724,644	53,37
725,081	53,93
725,519	54,42
725,957	54,37
726,394	55,31
726,832	55,49
727,269	55,92
727,706	56,07
728,143	56,56
728,58	57,23
729,017	57,19
729,454	57,33
729,89	57,87
730,327	58,39
730,764	58,64
731,2	58,91
731,636	59,1
732,072	59,35
732,509	59,57
732,945	59,8
733,38	60,05
733,816	60,25
734,252	60,49
734,688	60,61
735,123	60,85
735,559	61,32
735,994	61,7
736,429	61,41
736,864	61,7
737,299	61,97
737,734	62,01
738,169	62,48
738,604	62,5
739,038	62,83
739,473	62,84
739,907	62,89
740,342	63,11
740,776	63,18
741,21	62,97
741,644	63
742,078	63,2
742,512	63,42
742,946	63,64
743,379	64,16
743,813	63,72
744,246	63,98
744,68	63,91
745,113	64,08
745,546	64,16
745,979	64,17
746,412	64,14
746,845	64,42
747,278	64,23
747,711	64,19
748,143	64,51
748,576	64,35
749,008	64,41
749,441	64,38
749,873	64,3
750,305	64,61
750,737	64,19
751,169	63,93
751,601	64,35
752,032	64,34
752,464	64,38
752,896	64,25
753,327	64,17
753,758	64,44
754,19	64,37
754,621	64,44
755,052	64,66
755,483	64,37
755,914	64,5
756,344	64,3
756,775	64,33
757,206	64,36
757,636	64,28
758,066	64,54
758,497	64,34
758,927	64,29
759,357	64,46
759,787	64,14
760,217	64,42
760,647	64,04
761,076	64,45
761,506	64,37
761,935	64,11
762,365	64,24
762,794	64,52
763,223	64,4
763,653	64,16
764,082	64,4
764,51	64,19
764,939	64,07
765,368	64,74
765,797	64,07
766,225	64,09
766,654	63,97
767,082	64,14
767,51	63,8
767,938	63,76
768,367	63,91
768,795	63,85
769,222	63,75
769,65	63,96
770,078	63,79
770,505	63,69
770,933	63,89
771,36	63,93
771,788	63,95
772,215	63,83
772,642	63,91
773,069	64,03
773,496	63,84
773,923	63,92
774,349	63,68
774,776	63,93
775,203	63,75
775,629	63,62
776,055	63,74
776,482	64,09
776,908	63,44
777,334	63,84
777,76	63,76
778,186	63,74
778,611	63,62
779,037	63,78
779,463	63,65
779,888	63,75
780,314	63,59
780,739	63,68
781,164	63,46
781,589	63,69
782,014	63,51
782,439	63,61
782,864	63,79
783,289	63,47
783,713	63,47
784,138	63,33
784,562	63,97
784,987	63,55
785,411	63,5
785,835	63,19
786,259	63,07
786,683	63,39
787,107	63,42
787,531	63,68
787,954	63,82
788,378	63,87
788,802	63,51
789,225	63,11
789,648	63,37
790,071	63,47
790,495	63,67
790,918	63,57
791,34	63,65
791,763	63,51
792,186	63,44
792,609	63,55
793,031	63,75
793,454	63,58
793,876	63,11
794,298	63,65
794,721	63,49
795,143	63,23
795,565	63,38
795,986	63,32
796,408	62,96
796,83	63,49
797,252	63,3
797,673	63,2
798,094	63,63
798,516	63,13
798,937	63,53
799,358	63,45
799,779	63,2
800,2	63,03
800,621	63,73
801,042	63,4
801,462	63,24
801,883	63,38
802,303	63,01
802,724	63,4
803,144	63,46
803,564	63,18
803,984	63,41
804,404	63,62
804,824	63,62
805,244	63,48
805,664	63,31
806,084	63,44
806,503	63,35
806,923	63,46
807,342	63,29
807,761	63,11
808,18	63,49
808,599	62,99
809,018	63,06
809,437	63,62
809,856	63,51
810,275	63,15
810,693	63,54
811,112	63,45
811,53	63,37
811,949	63,4
812,367	63,04
812,785	63,35
813,203	63,39
813,621	63,14
814,039	63,39
814,457	63,48
814,874	63,21
815,292	63,64
815,709	63,37
816,127	62,97
816,544	63,19
816,961	63,31
817,378	63,19
817,795	62,99
818,212	63,15
818,629	63,02
819,046	63,13
819,462	63,45
819,879	63,28
820,295	62,89
820,712	63,49
821,128	63,28
821,544	63,22
821,96	63,09
822,376	63,56
822,792	63,1
823,208	63,17
823,624	63,42
824,039	63,52
824,455	63,4
824,87	63,07
825,286	63,25
825,701	63,33
826,116	63,12
826,531	63,06
826,946	62,98
827,361	63,18
827,776	63,59
828,19	63,25
828,605	63,28
829,02	63,18
829,434	63,09
829,848	63,62
830,263	63,05
830,677	63,03
831,091	62,94
831,505	63,15
831,919	63,34
832,332	63,43
832,746	63
833,16	63,08
833,573	62,69
833,987	63,25
834,4	63,35
834,813	63,03
835,226	63
835,639	62,96
836,052	62,88
836,465	63,08
836,878	63,22
837,29	62,63
837,703	63,26
838,116	62,86
838,528	63,2
838,94	62,85
839,352	62,74
839,765	62,95
840,177	63,19
840,589	62,88
841	62,76
841,412	63,38
841,824	63
842,235	63,05
842,647	62,86
843,058	63,01
843,47	62,85
843,881	63,06
844,292	63,28
844,703	63,05
845,114	62,92
845,525	63,21
845,935	63,27
846,346	63,53
846,757	63,26
847,167	62,93
847,577	63,14
847,988	63,09
848,398	63,37
848,808	63,17
849,218	63
849,628	62,86
850,038	63,05
850,448	62,81
850,857	63,03
851,267	63,04
851,676	63,21
852,086	62,87
852,495	62,55
852,904	62,69
853,313	63,08
853,722	63,01
854,131	63,16
854,54	63,14
854,949	63
855,357	62,85
855,766	62,98
856,174	63
856,583	62,95
856,991	63,1
857,399	63,02
857,807	63,4
858,215	62,75
858,623	63,11
859,031	63,28
859,439	63,2
859,846	63,21
860,254	63,09
860,661	62,64
861,069	63,05
861,476	62,99
861,883	63,04
862,29	62,97
862,697	63,35
863,104	62,79
863,511	62,56
863,918	63,13
864,325	63,03
864,731	63,2
865,138	63,14
865,544	63,21
865,95	63,5
866,357	62,6
866,763	63,05
867,169	63,17
867,575	62,82
867,98	62,87
868,386	62,99
868,792	62,8
869,197	63,38
869,603	62,75
870,008	62,75
870,414	62,86
870,819	62,76
871,224	63,46
871,629	62,76
872,034	63,14
872,439	62,56
872,844	63,31
873,248	62,94
873,653	63,02
874,057	62,86
874,462	62,41
874,866	63,29
875,27	63,09
875,674	62,9
876,078	62,9
876,482	63,16
876,886	63,29
877,29	62,9
877,694	62,64
878,097	62,88
878,501	62,82
878,904	62,82
879,308	63
879,711	62,9
880,114	62,95
880,517	62,96
880,92	63,32
881,323	62,82
881,726	62,62
882,128	63,1
882,531	63,17
882,934	63,38
883,336	62,83
883,738	62,81
884,141	63,16
884,543	62,97
884,945	62,8
885,347	62,74
885,749	62,6
886,151	62,74
886,552	62,74
886,954	62,69
887,355	62,86
887,757	63,02
888,158	62,9
888,56	63,05
888,961	62,73
889,362	63,01
889,763	63
890,164	62,91
890,565	62,89
890,965	62,86
891,366	63,02
891,767	63,01
892,167	62,91
892,567	63,12
892,968	63,15
893,368	62,82
893,768	62,65
894,168	62,83
894,568	62,89
894,968	62,93
895,368	62,66
895,767	63,05
896,167	62,93
896,566	62,88
896,966	62,79
897,365	63,08
897,764	63,05
898,164	63,07
898,563	63,05
898,962	63,25
899,361	62,97
899,759	62,97
900,158	62,91
900,557	63,18
900,955	62,84
901,354	62,87
901,752	62,81
902,15	62,93
902,548	63,1
902,947	63,06
903,345	63,05
903,742	63
904,14	62,93
904,538	63,16
904,936	62,84
905,333	62,79
905,731	62,73
906,128	63,17
906,525	62,91
906,923	62,98
907,32	62,87
907,717	62,58
908,114	63,28
908,511	63,02
908,907	63
909,304	62,65
909,701	63,01
910,097	62,77
910,494	62,54
910,89	63,13
911,286	62,68
911,682	63,06
912,078	62,99
912,474	62,59
912,87	62,67
913,266	63,18
913,662	63,21
914,058	63
914,453	62,72
914,849	62,64
915,244	62,8
915,639	63,22
916,034	63,11
916,43	62,57
916,825	62,71
917,22	62,82
917,614	62,75
918,009	63,06
918,404	62,44
918,798	63,41
919,193	62,71
919,587	62,73
919,982	63,28
920,376	62,31
920,77	62,79
921,164	63,12
921,558	62,8
921,952	62,63
922,346	63,02
922,74	62,51
923,133	62,5
923,527	62,55
923,92	62,68
924,314	62,54
924,707	62,38
925,1	62,53
925,493	62,97
925,886	62,26
926,279	62,81
926,672	62,42
927,065	62,81
927,457	62,53
927,85	62,51
928,243	62,84
928,635	62,83
929,027	62,68
929,42	62,74
929,812	62,87
930,204	62,01
930,596	62,87
930,988	62,73
931,379	62,5
931,771	62,39
932,163	62,5
932,554	62,55
932,946	62,69
933,337	62,5
933,729	62,58
934,12	62,28
934,511	62,26
934,902	62,48
935,293	63,29
935,684	62,32
936,075	62,24
936,465	62,22
936,856	62,37
937,246	62,58
937,637	62,14
938,027	62,75
938,417	62,72
938,808	61,87
939,198	62,4
939,588	62,18
939,978	62,33
940,368	62,14
940,757	61,75
941,147	63,06
941,537	61,84
941,926	62,06
942,315	62,1
942,705	62,88
943,094	61,64
943,483	62,92
943,872	62,43
944,261	61,8
944,65	62,28
945,039	62,01
945,428	61,96
945,816	61,55
946,205	62,51
946,593	62,92
946,982	62,47
947,37	61,88
947,758	62,26
948,146	63,2
948,534	61,29
948,922	61,83
949,31	61,62
949,698	61,89
950,086	61,6
950,473	62,32
950,861	61,21
951,248	62,2
951,636	61,96
952,023	61,98
952,41	62,01
952,797	61,41
953,184	61,82
953,571	62,06
953,958	62,21
954,345	61,74
954,731	61,27
955,118	62,12
955,505	61,36
955,891	61,44
956,277	61,93
956,664	61,05
957,05	61,63
957,436	61,22
957,822	61,4
958,208	61,31
958,594	61,3
958,979	61,98
959,365	61,29
959,751	61,6
960,136	61,77
960,522	61,03
960,907	62,1
961,292	61,94
961,677	61,26
962,062	61,58
962,447	61,03
962,832	61,42
963,217	61,96
963,602	61,03
963,986	61,51
964,371	60,85
964,756	61,3
965,14	61,12
965,524	61,2
965,908	61,16
966,293	61,61
966,677	60,86
967,061	61,16
967,445	60,81
967,828	61,48
968,212	61,29
968,596	61,07
968,979	61,14
969,363	61,38
969,746	60,57
970,129	61,55
970,513	60,99
970,896	60,85
971,279	60,47
971,662	61,09
972,045	61,16
972,428	61,03
972,81	61,1
973,193	61,11
973,575	61,27
973,958	60,93
974,34	61,57
974,723	61,58
975,105	61,22
975,487	61,3
975,869	60,7
976,251	60,53
976,633	61,13
977,015	60,64
977,396	61,41
977,778	61,29
978,16	61,07
978,541	60,64
978,922	60,89
979,304	61,13
979,685	60,46
980,066	61,42
980,447	61,35
980,828	60,87
981,209	60,89
981,59	60,97
981,97	61,44
982,351	61,38
982,732	61,53
983,112	61,04
983,493	61,24
983,873	61,08
984,253	61,38
984,633	60,73
985,013	61,55
985,393	61,25
985,773	60,94
986,153	61,42
986,533	61,58
986,912	61,17
987,292	60,75
987,671	61,08
988,051	61,34
988,43	61,19
988,809	61,49
989,188	61,34
989,567	60,94
989,946	61,21
990,325	61,96
990,704	61,25
991,083	61,06
991,461	61,19
991,84	61,61
992,218	61,5
992,597	61,3
992,975	61,67
993,353	62,16
993,732	61,08
994,11	61,5
994,488	61,27
994,866	60,97
995,243	61,57
995,621	61,13
995,999	61,56
996,376	61,4
996,754	60,75
997,131	61,2
997,509	61,22
997,886	61,14
998,263	60,84
998,64	61,24
999,017	60,78
999,394	61,59
999,771	61,48
1000,148	61
1000,524	61,34
1000,901	61,62
1001,277	61,81
1001,654	61,61
1002,03	61,61
1002,406	61,32
1002,783	61,72
1003,159	61,82
1003,535	62,14
1003,911	61,82
1004,286	62,03
1004,662	61,62
1005,038	62,02
1005,414	62,06
1005,789	61,8
1006,164	61,71
1006,54	62,03
1006,915	61,67
1007,29	62,79
1007,665	61,91
1008,04	62,15
1008,415	61,9
1008,79	61,78
1009,165	62,52
1009,54	61,71
1009,914	61,92
1010,289	61,56
1010,663	61,54
1011,038	61,67
1011,412	61,54
1011,786	62,16
1012,16	62,28
1012,535	61,17
1012,909	61,5
1013,282	62,77
1013,656	61,75
1014,03	61,06
1014,404	61,87
1014,777	61,24
1015,151	62,5
1015,524	62,21
1015,897	61,63
1016,271	62,29
1016,644	62,77
1017,017	62,43
1017,39	62,1
1017,763	61,07
1018,136	61,48
1018,508	62,34
1018,881	62,32
1019,254	62,01
1019,626	62,35
1019,999	61,53
1020,371	63,47
1020,743	62,26
1021,116	61,94
1021,488	62,15
1021,86	61,98
1022,232	61,88
1022,604	61,73
1022,975	62,25
1023,347	61,76
1023,719	61,37
1024,09	63,51
1024,462	62,17
1024,833	62,14
1025,204	62,17
1025,576	62,33
1025,947	62,29
1026,318	63,12
1026,689	62,4
1027,06	61,42
1027,431	62,85
1027,801	62,34
1028,172	62,54
1028,543	62,39
1028,913	62,68
1029,284	62,46
1029,654	62,15
1030,024	61,87
1030,394	61,45
1030,764	61,65
1031,135	62,87
1031,504	61,76
1031,874	62,37
1032,244	62,83
1032,614	62,1
1032,983	61,8
1033,353	62,51
1033,722	62,92
1034,092	62,55
1034,461	61,5
1034,83	62,59
1035,2	62,19
1035,569	61,98
1035,938	62,41
1036,307	62,44
1036,675	62,32
1037,044	62,56
1037,413	63,23
1037,781	62,59
1038,15	61,91
1038,518	61,88
1038,887	62,65
1039,255	63,11
1039,623	62,61
1039,991	62,04
1040,359	62,04
1040,727	62,8
1041,095	62,36
1041,463	62,67
1041,831	62,97
1042,198	63,23
1042,566	62,88
1042,933	62,43
1043,301	63,01
1043,668	62,26
1044,035	61,66
1044,402	63,3
1044,77	62,1
1045,137	63,3
1045,503	63,4
1045,87	62,33
1046,237	62,14
1046,604	62,84
1046,97	63,35
1047,337	62,39
1047,703	62,36
1048,07	62,73
1048,436	62,94
1048,802	63,57
1049,168	63,47
1049,534	63,53
1049,9	62,67
1050,266	64
1050,632	63,04
1050,998	63,28
1051,364	62,44
1051,729	63,15
1052,095	62,62
1052,46	62,76
1052,825	62,85
1053,191	63,22
1053,556	63,12
1053,921	63,23
1054,286	63,68
1054,651	62,4
1055,016	62,35
1055,381	62,72
1055,745	63,88
1056,11	63,28
1056,475	63,88
1056,839	63,2
1057,203	63,25
1057,568	63,71
1057,932	64,38
1058,296	62,82
1058,66	63,67
1059,024	63,02
1059,388	63,77
1059,752	62,35
1060,116	64,27
1060,48	63,87
1060,843	62,6
1061,207	64,3
1061,57	62,69
1061,934	64,16
1062,297	62,69
1062,66	63,29
1063,023	62,89
1063,386	64,35
1063,749	62,84
1064,112	63,45
1064,475	62,98
1064,838	62,84
1065,201	63,44
1065,563	63,38
1065,926	63,87
1066,288	64,27
1066,651	62,45
1067,013	64,35
1067,375	63,14
1067,737	64,18
1068,099	64,27
1068,461	63,68
1068,823	64
1069,185	61,74
1069,547	62,34
1069,909	64,09
1070,27	64,53
1070,632	63,93
1070,993	63,67
1071,355	63,39
1071,716	65,31
1072,077	62,83
1072,438	63,27
1072,799	62,77
1073,16	63,25
1073,521	63,24
1073,882	63,68
1074,243	64,92
1074,603	63,46
1074,964	65,28
1075,325	65,86
1075,685	63,96
1076,045	62,91
1076,406	62,52
1076,766	64,17
1077,126	63,15
1077,486	63,52
1077,846	64,14
1078,206	62,97
1078,566	61,76
1078,925	62,29
1079,285	64,04
1079,645	62,87
1080,004	64,33
1080,364	63,55
1080,723	62,9
1081,082	64,2
1081,442	63,75
1081,801	63,22
1082,16	62,68
1082,519	63,34
1082,878	62,87
1083,237	63,76
1083,595	62,42
1083,954	64,46
1084,313	62,49
1084,671	65,21
1085,03	63,22
1085,388	65,33
1085,746	63,05
1086,104	62,48
1086,463	62,41
1086,821	63,93
1087,179	63,59
1087,537	64,53
1087,894	65,54
1088,252	63,81
1088,61	63,61
1088,967	63,34
1089,325	63,68
1089,682	65,51
1090,04	64,77
1090,397	65,26
1090,754	65
1091,111	65,68
1091,469	65,84
1091,826	64,47
1092,182	63,69
1092,539	64,17
1092,896	65,58
1093,253	64,68
1093,609	65,7
1093,966	64,64
1094,322	65,11
1094,679	62,89
1095,035	64,09
1095,391	65,25
1095,748	64,74
1096,104	63,78
1096,46	64,63
1096,816	63,75
1097,171	63,76
1097,527	62,01
1097,883	62,21
1098,239	64,55
1098,594	63,75
1098,95	63,37
1099,305	64,42
1099,66	63,21
1100,016	63,94
1100,371	63,52
1100,726	63,67
1101,081	65,4
1101,436	63,81
1101,791	64,6
1102,146	62,37
1102,5	63,5
1102,855	64,87
1103,21	62,35
1103,564	67,64
1103,918	64,46
1104,273	63,69
1104,627	63,65
1104,981	65,42
1105,335	64,47
1105,69	64,5
1106,043	65,75
1106,397	66,49
1106,751	66,7
1107,105	64,78
1107,459	64,79
1107,812	66,78
1108,166	65,25
1108,519	63,66
1108,873	62,84
1109,226	65,79
1109,579	63,55
1109,932	65,41
1110,285	67,75
1110,638	63,97
1110,991	65,55
1111,344	65,74
1111,697	67,56
1112,05	63,15
1112,402	66,64
1112,755	63,64
1113,107	67,5
1113,46	64,7
1113,812	64,27
1114,164	63,7
1114,517	65,11
1114,869	71,03
1115,221	92,98
1115,573	94,23
1115,924	104,2
