Data from A6__Relative__6__00016.txt Node

Date: Wed Jan 31 17:55:26 CET 2024
User: diatiterra
Spectrometer: HDX00911
Trigger mode: 0
Integration Time (sec): 6,000000E-3
Scans to average: 2
Nonlinearity correction enabled: false
Boxcar width: 0
Storing dark spectrum: false
XAxis mode: Wavelengths
Number of Pixels in Spectrum: 2068
>>>>>Begin Spectral Data<<<<<
194,468	87,74
195,025	89,09
195,581	90,24
196,138	101,28
196,694	85,8
197,251	70,2
197,807	62,6
198,363	69,6
198,919	58,62
199,474	65,44
200,03	69,26
200,586	81,25
201,141	60,65
201,696	64,43
202,251	66,29
202,806	60,84
203,361	71,48
203,916	64,58
204,471	62,77
205,025	68,55
205,58	58,93
206,134	71,6
206,688	61,92
207,242	71,68
207,796	69,17
208,35	72,46
208,904	68,28
209,457	53,82
210,011	57,45
210,564	64,08
211,117	55,26
211,67	64,18
212,223	63,7
212,776	65,32
213,329	62,33
213,881	75,98
214,434	57,24
214,986	69,42
215,538	71,32
216,09	57,75
216,642	77,69
217,194	71,21
217,746	69,92
218,297	64,5
218,849	65,07
219,4	72,27
219,951	62,5
220,502	60,14
221,053	72,14
221,604	71,48
222,155	66,67
222,705	61,03
223,256	69,03
223,806	68,5
224,356	65
224,906	67,34
225,456	66,67
226,006	55,16
226,556	54,87
227,106	62,9
227,655	50
228,204	66,67
228,754	55,99
229,303	65,36
229,852	58,27
230,401	69,4
230,949	61,15
231,498	63,38
232,047	58,77
232,595	68,62
233,143	62,99
233,691	53,1
234,239	59,29
234,787	63,6
235,335	61,94
235,883	57,69
236,43	68,56
236,978	65,38
237,525	52,55
238,072	52,48
238,619	61,74
239,166	56,03
239,713	68,25
240,26	58,21
240,806	61,81
241,353	60,32
241,899	56,29
242,445	59,85
242,991	67,56
243,537	56,82
244,083	69,47
244,629	61,92
245,174	65,93
245,72	60,74
246,265	56,75
246,81	63,2
247,355	61,11
247,9	52,61
248,445	70,24
248,99	63,64
249,534	67,83
250,079	55,26
250,623	64,07
251,168	68,6
251,712	61,72
252,256	64,75
252,8	67,69
253,343	53,93
253,887	62,5
254,43	58,4
254,974	66,79
255,517	59,93
256,06	70,38
256,603	54,07
257,146	62,02
257,689	74,02
258,232	70,34
258,774	69,86
259,317	71,61
259,859	65,6
260,401	73,26
260,943	63,12
261,485	67,73
262,027	68
262,569	69,78
263,11	62,69
263,652	75,2
264,193	58,68
264,734	69,71
265,275	71,31
265,816	59,92
266,357	65,12
266,898	65
267,438	66,54
267,979	55,76
268,519	61,94
269,059	77,57
269,6	71,43
270,14	73,39
270,68	68,12
271,219	66,95
271,759	60,53
272,298	65,41
272,838	57,69
273,377	69,05
273,916	65,83
274,455	64,6
274,994	68,8
275,533	61,59
276,072	63,01
276,61	57,25
277,149	63,33
277,687	65,04
278,225	54,67
278,763	74,12
279,301	75,42
279,839	58,47
280,377	66,8
280,914	62,24
281,452	67,95
281,989	63,64
282,526	74,02
283,064	72,27
283,601	64,19
284,137	57,85
284,674	65,42
285,211	67,11
285,747	65,53
286,284	72,97
286,82	64,46
287,356	60,86
287,892	68,99
288,428	63,64
288,964	73,53
289,5	73,97
290,035	64,4
290,571	65,97
291,106	58,94
291,641	77,23
292,176	62,5
292,711	67,07
293,246	51,54
293,781	69,83
294,315	56,34
294,85	76,39
295,384	60,25
295,918	52,21
296,453	52,24
296,987	63,64
297,52	67,36
298,054	61,45
298,588	73,75
299,121	69,4
299,655	67,52
300,188	72,08
300,721	62,2
301,254	60,89
301,787	62,11
302,32	67,07
302,853	63,6
303,385	64,29
303,918	63,95
304,45	69,62
304,982	56,03
305,514	71,32
306,046	58,68
306,578	57,75
307,11	64,34
307,641	64,66
308,173	59,5
308,704	52,89
309,236	56,39
309,767	65,25
310,298	56,45
310,829	61,74
311,359	67,34
311,89	58,82
312,421	61,71
312,951	72,76
313,481	61,03
314,012	58,96
314,542	69,92
315,072	63,36
315,601	58
316,131	62,99
316,661	55,83
317,19	54,81
317,72	71,07
318,249	65,48
318,778	67,58
319,307	64,06
319,836	59,29
320,365	66,52
320,893	66,94
321,422	70,73
321,95	69,55
322,479	59,54
323,007	64,55
323,535	58,21
324,063	64,8
324,591	61,6
325,118	66,79
325,646	78,99
326,173	60,42
326,701	59,76
327,228	64,22
327,755	56,39
328,282	57,25
328,809	61,86
329,336	62,99
329,862	58,09
330,389	58,2
330,915	68,11
331,441	47,33
331,968	60,36
332,494	66,67
333,02	57,08
333,545	55,6
334,071	68,6
334,597	52,11
335,122	60,37
335,648	65,09
336,173	53,41
336,698	55,7
337,223	58,46
337,748	53,12
338,272	54,79
338,797	57,61
339,322	54,38
339,846	58,82
340,37	63,31
340,894	56,25
341,419	66,54
341,942	55,94
342,466	58,01
342,99	53,36
343,514	59,51
344,037	49,68
344,56	60,37
345,084	53,08
345,607	55,21
346,13	48,59
346,653	54
347,175	49,68
347,698	48,11
348,221	58,21
348,743	50,62
349,265	52,16
349,787	51,23
350,309	45,57
350,831	50
351,353	52,13
351,875	52,34
352,397	53,5
352,918	55,59
353,439	56,29
353,961	45,06
354,482	55,56
355,003	55,81
355,524	55,83
356,044	46,02
356,565	50,9
357,086	53,11
357,606	45,33
358,126	51,86
358,646	52,81
359,167	47,03
359,687	50
360,206	50,27
360,726	43,84
361,246	50,53
361,765	51,41
362,285	41
362,804	48,42
363,323	44,15
363,842	43,41
364,361	47,51
364,88	41,87
365,398	47,16
365,917	48,35
366,435	55,73
366,954	50,22
367,472	42,45
367,99	52,13
368,508	46,56
369,026	50,23
369,544	47,15
370,061	41,6
370,579	50,2
371,096	48,39
371,613	45,47
372,131	46,85
372,648	43,31
373,165	42,97
373,681	48,52
374,198	52,54
374,715	44,36
375,231	45,45
375,747	43,97
376,264	42,86
376,78	42,99
377,296	42,19
377,812	42,69
378,327	43,71
378,843	49,15
379,359	46,69
379,874	46,02
380,389	40,85
380,905	40,3
381,42	41,34
381,935	44,21
382,449	43,36
382,964	43,14
383,479	38,22
383,993	40,44
384,508	40,68
385,022	38,47
385,536	39,08
386,05	41,34
386,564	41,92
387,078	38,76
387,592	39,9
388,105	38,3
388,619	36,94
389,132	37,42
389,645	38,85
390,158	35,3
390,671	37,98
391,184	31,38
391,697	34,47
392,21	33,79
392,722	32,64
393,235	33,96
393,747	34,82
394,259	30,52
394,771	33,46
395,283	30,4
395,795	33,3
396,307	36,36
396,818	33,33
397,33	32,4
397,841	30,35
398,353	30,92
398,864	29,77
399,375	30,05
399,886	29,3
400,397	28,78
400,907	27,95
401,418	26,42
401,928	27,67
402,439	27,62
402,949	24,75
403,459	25,75
403,969	25,65
404,479	23
404,989	24,09
405,498	24
406,008	24,1
406,517	22,53
407,027	19,19
407,536	21,25
408,045	21,11
408,554	20,25
409,063	19,17
409,572	18,72
410,08	16,74
410,589	18,33
411,097	17,46
411,606	17,55
412,114	17,15
412,622	16,04
413,13	15,63
413,638	15,37
414,145	15,36
414,653	15,21
415,16	13,05
415,668	14,03
416,175	13,79
416,682	13,28
417,189	12,62
417,696	13,18
418,203	13,1
418,71	12,59
419,216	12,9
419,723	12,06
420,229	11,91
420,735	11,91
421,242	11,83
421,748	11,87
422,254	11,93
422,759	12,15
423,265	11,82
423,771	11,18
424,276	11,8
424,781	10,94
425,287	11,1
425,792	10,76
426,297	10,89
426,802	10,62
427,306	11,13
427,811	10,89
428,316	11,24
428,82	10,62
429,324	10,59
429,829	10,81
430,333	10,6
430,837	10,97
431,34	10,59
431,844	10,39
432,348	10,19
432,851	10,42
433,355	10,3
433,858	10,43
434,361	10,13
434,864	10,29
435,367	9,72
435,87	10,61
436,373	10,38
436,876	10,37
437,378	10,11
437,88	9,57
438,383	10,21
438,885	10,06
439,387	9,89
439,889	10,3
440,391	9,67
440,892	9,91
441,394	10,37
441,896	9,92
442,397	9,83
442,898	9,48
443,399	10,05
443,9	10,14
444,401	10,08
444,902	10,38
445,403	9,9
445,903	9,74
446,404	10,17
446,904	10,34
447,405	9,84
447,905	9,79
448,405	10,3
448,905	10,35
449,404	10,14
449,904	9,91
450,404	10,29
450,903	10,67
451,403	10,08
451,902	10
452,401	10
452,9	10,46
453,399	10,19
453,898	10,04
454,396	10,44
454,895	10,19
455,393	10,2
455,892	10,25
456,39	10,55
456,888	10,65
457,386	10,46
457,884	10,56
458,382	10,75
458,879	10,16
459,377	10,71
459,874	10
460,372	10,44
460,869	10,42
461,366	10,55
461,863	10,4
462,36	10,71
462,857	10,85
463,353	10,68
463,85	10,6
464,346	10,4
464,843	10,48
465,339	10,67
465,835	10,95
466,331	10,55
466,827	10,35
467,323	10,79
467,818	10,62
468,314	10,82
468,809	10,79
469,305	10,64
469,8	10,99
470,295	10,51
470,79	10,58
471,285	10,3
471,78	10,27
472,274	10,4
472,769	10,3
473,263	10,23
473,758	10,53
474,252	10,6
474,746	10,6
475,24	10,8
475,734	10,46
476,228	10,49
476,721	10,79
477,215	10,71
477,708	10,6
478,202	10,57
478,695	10,56
479,188	10,41
479,681	10,4
480,174	10,67
480,667	10,79
481,159	10,85
481,652	10,61
482,144	10,85
482,637	10,9
483,129	10,72
483,621	10,94
484,113	10,92
484,605	10,86
485,097	10,69
485,588	10,79
486,08	10,77
486,571	11,19
487,063	10,89
487,554	10,96
488,045	10,97
488,536	11,28
489,027	10,95
489,518	11,12
490,008	10,79
490,499	11,03
490,989	10,71
491,48	11,19
491,97	11,08
492,46	11,16
492,95	11,23
493,44	11,53
493,93	11,26
494,419	11,39
494,909	11,47
495,398	11,65
495,888	11,48
496,377	11,79
496,866	12,01
497,355	11,73
497,844	11,93
498,333	12,1
498,821	12,14
499,31	12,22
499,798	12,73
500,287	12,46
500,775	12,87
501,263	12,74
501,751	12,82
502,239	12,85
502,727	12,87
503,215	12,97
503,702	13,48
504,19	13,42
504,677	13,6
505,164	13,82
505,651	13,92
506,139	14,25
506,625	14,08
507,112	14,79
507,599	14,92
508,086	15,4
508,572	15,51
509,058	15,51
509,545	15,55
510,031	15,65
510,517	16,29
511,003	16,42
511,489	16,44
511,974	17,12
512,46	17
512,946	17,19
513,431	18,15
513,916	18,15
514,401	18,63
514,887	18,78
515,371	19,42
515,856	19,57
516,341	19,97
516,826	20,29
517,31	20,65
517,795	20,9
518,279	21,14
518,763	22
519,247	22,2
519,731	22,77
520,215	22,82
520,699	23,23
521,182	23,87
521,666	24,14
522,149	24,79
522,633	25,39
523,116	25,6
523,599	26,22
524,082	25,97
524,565	26,6
525,048	27,25
525,53	27,2
526,013	27,76
526,495	28,46
526,978	28,27
527,46	29,03
527,942	29,05
528,424	29,65
528,906	29,2
529,388	30,12
529,87	30,66
530,351	30,74
530,833	31,11
531,314	30,71
531,795	31,15
532,277	31,61
532,758	31,94
533,238	31,64
533,719	32,7
534,2	32,31
534,681	32,65
535,161	32,95
535,642	33,36
536,122	32,72
536,602	33,41
537,082	33,29
537,562	33,59
538,042	33,25
538,522	33,68
539,001	33,73
539,481	33,48
539,96	33,61
540,44	34,3
540,919	33,6
541,398	34,36
541,877	34,31
542,356	34,2
542,835	33,74
543,313	34,62
543,792	34,48
544,27	34,5
544,749	34,99
545,227	35,29
545,705	34,54
546,183	35,38
546,661	34,68
547,139	34,67
547,616	34,49
548,094	35,34
548,571	35,44
549,049	35,31
549,526	34,82
550,003	35,57
550,48	34,83
550,957	34,99
551,434	35,27
551,911	35,54
552,387	35,57
552,864	35,35
553,34	35,61
553,817	35,45
554,293	35,12
554,769	35,51
555,245	35,3
555,721	35,24
556,197	35,17
556,672	35,02
557,148	35,65
557,623	35,65
558,099	35,03
558,574	34,86
559,049	34,67
559,524	35,26
559,999	34,87
560,474	34,66
560,948	34,42
561,423	34,85
561,897	34,57
562,372	34,23
562,846	34,25
563,32	33,93
563,794	33,87
564,268	34
564,742	33,53
565,216	33,38
565,69	32,99
566,163	32,9
566,636	32,38
567,11	32,68
567,583	32,15
568,056	32,08
568,529	31,64
569,002	31,52
569,475	31,21
569,947	31,16
570,42	31,33
570,892	30,37
571,365	30,47
571,837	30,15
572,309	29,87
572,781	29,83
573,253	29,47
573,725	29,15
574,197	29,14
574,668	28,72
575,14	28,5
575,611	28,43
576,082	28,18
576,554	27,73
577,025	27,69
577,496	27,74
577,967	27,4
578,437	27
578,908	26,64
579,379	26,9
579,849	26,72
580,319	26,41
580,79	26,26
581,26	26,18
581,73	25,84
582,2	25,89
582,669	25,41
583,139	25,25
583,609	25,08
584,078	25,5
584,548	25,05
585,017	25,18
585,486	24,55
585,955	24,98
586,424	24,84
586,893	24,43
587,362	24,69
587,83	24,19
588,299	24,42
588,767	24,37
589,236	24,05
589,704	23,96
590,172	23,89
590,64	23,41
591,108	23,52
591,576	23,55
592,043	23,43
592,511	23,37
592,978	23,32
593,446	23,3
593,913	23,07
594,38	23,04
594,847	23,03
595,314	23,22
595,781	22,95
596,248	23,03
596,715	22,9
597,181	22,75
597,647	22,96
598,114	22,67
598,58	22,49
599,046	22,86
599,512	22,63
599,978	22,47
600,444	22,34
600,91	22,3
601,375	22,2
601,841	22,4
602,306	22,49
602,771	22,25
603,236	22,12
603,702	22,3
604,167	21,93
604,631	22,15
605,096	22,03
605,561	21,66
606,025	21,69
606,49	21,77
606,954	21,6
607,418	21
607,882	21,44
608,347	21
608,81	21,19
609,274	20,74
609,738	20,88
610,202	20,65
610,665	20,74
611,128	20,5
611,592	20,17
612,055	20,3
612,518	20,1
612,981	20,33
613,444	19,83
613,907	19,7
614,369	19,61
614,832	19,63
615,294	19,49
615,757	19,57
616,219	19,45
616,681	18,98
617,143	18,96
617,605	19
618,067	19,03
618,529	18,86
618,99	18,76
619,452	18,6
619,913	18,49
620,375	18,45
620,836	18,29
621,297	18,42
621,758	18,22
622,219	18,19
622,68	18,11
623,14	17,97
623,601	18,06
624,061	18,22
624,522	18,17
624,982	18,05
625,442	18,13
625,902	18,02
626,362	17,82
626,822	17,88
627,282	17,85
627,742	17,81
628,201	17,8
628,661	17,97
629,12	17,73
629,579	17,84
630,038	17,72
630,497	17,85
630,956	17,76
631,415	17,54
631,874	17,65
632,332	17,54
632,791	17,6
633,249	17,48
633,708	17,48
634,166	17,16
634,624	17,04
635,082	17,19
635,54	17,21
635,998	17,04
636,455	16,9
636,913	16,89
637,37	16,63
637,828	16,7
638,285	16,65
638,742	16,67
639,199	16,3
639,656	15,99
640,113	16,15
640,57	15,96
641,027	15,67
641,483	15,72
641,94	15,81
642,396	15,42
642,852	15,29
643,309	15,11
643,765	14,99
644,221	14,86
644,676	14,66
645,132	14,63
645,588	14,6
646,043	14,24
646,499	14,16
646,954	14,15
647,409	13,98
647,864	13,99
648,319	13,78
648,774	13,69
649,229	13,55
649,684	13,49
650,139	13,48
650,593	13,21
651,047	13,23
651,502	13,3
651,956	13,16
652,41	13,03
652,864	13,05
653,318	13,05
653,772	12,89
654,225	12,87
654,679	12,82
655,133	12,92
655,586	12,88
656,039	12,72
656,492	12,54
656,946	12,61
657,399	12,3
657,851	12,54
658,304	12,32
658,757	12,46
659,209	12,21
659,662	12,24
660,114	12
660,567	12,08
661,019	11,92
661,471	11,89
661,923	11,78
662,375	11,62
662,826	11,74
663,278	11,73
663,73	11,6
664,181	11,54
664,632	11,57
665,084	11,52
665,535	11,51
665,986	11,58
666,437	11,38
666,888	11,4
667,338	11,34
667,789	11,46
668,24	11,32
668,69	11,57
669,14	11,52
669,591	11,53
670,041	11,65
670,491	11,6
670,941	11,6
671,391	11,75
671,84	11,5
672,29	11,66
672,74	11,85
673,189	11,84
673,638	11,85
674,088	12,07
674,537	12,09
674,986	12,14
675,435	12,3
675,883	12,51
676,332	12,53
676,781	12,64
677,229	12,66
677,678	12,71
678,126	12,87
678,574	13,01
679,022	13,25
679,47	13,14
679,918	13,48
680,366	13,48
680,814	13,59
681,261	13,69
681,709	13,92
682,156	13,96
682,604	14,08
683,051	14,24
683,498	14,35
683,945	14,38
684,392	14,68
684,839	14,77
685,286	14,77
685,732	14,88
686,179	15,16
686,625	15,24
687,071	15,28
687,518	15,6
687,964	15,89
688,41	15,97
688,856	16,11
689,301	16,65
689,747	16,78
690,193	17,2
690,638	17,54
691,084	17,96
691,529	18,35
691,974	18,84
692,419	19,35
692,864	20,08
693,309	20,44
693,754	20,85
694,199	21,61
694,643	22,21
695,088	23,1
695,532	23,72
695,977	24,52
696,421	25,16
696,865	25,67
697,309	26,47
697,753	27,21
698,197	28,16
698,64	28,79
699,084	29,77
699,527	30,53
699,971	31,14
700,414	31,86
700,857	32,71
701,3	33,21
701,743	34,22
702,186	35
702,629	36,04
703,072	36,61
703,515	37,03
703,957	37,77
704,399	38,69
704,842	39,2
705,284	39,99
705,726	40,85
706,168	41,26
706,61	42,17
707,052	42,49
707,494	43,44
707,935	43,95
708,377	44,84
708,818	45,36
709,26	46,12
709,701	46,54
710,142	47,39
710,583	47,63
711,024	48,52
711,465	49,21
711,905	49,68
712,346	49,94
712,787	50,46
713,227	51,41
713,667	51,75
714,108	52,63
714,548	53
714,988	53,95
715,428	54,42
715,868	55,3
716,307	55,06
716,747	55,75
717,186	56,15
717,626	56,41
718,065	57,45
718,504	57,37
718,944	58,24
719,383	58,96
719,822	58,86
720,261	59,36
720,699	59,78
721,138	59,81
721,576	60,79
722,015	61,53
722,453	61,37
722,892	61,93
723,33	62,71
723,768	63,07
724,206	62,82
724,644	63,29
725,081	63,69
725,519	64,17
725,957	64,18
726,394	64,78
726,832	64,63
727,269	65,04
727,706	65,74
728,143	65,7
728,58	66,1
729,017	65,98
729,454	66,42
729,89	66,89
730,327	66,85
730,764	67,51
731,2	67,31
731,636	67,36
732,072	67,64
732,509	68,1
732,945	68,48
733,38	68,43
733,816	68,66
734,252	69,08
734,688	68,95
735,123	69,14
735,559	69,21
735,994	68,82
736,429	69,61
736,864	69,35
737,299	69,7
737,734	69,88
738,169	69,69
738,604	69,83
739,038	69,96
739,473	70,2
739,907	70,46
740,342	70,42
740,776	70,81
741,21	70,25
741,644	70,85
742,078	70,56
742,512	70,28
742,946	70,84
743,379	70,48
743,813	70,57
744,246	70,47
744,68	70,61
745,113	70,76
745,546	70,39
745,979	70,54
746,412	70,29
746,845	70,37
747,278	70,58
747,711	70,33
748,143	70,49
748,576	71,04
749,008	70,98
749,441	70,49
749,873	70,53
750,305	70,84
750,737	70,34
751,169	70,46
751,601	70,33
752,032	70,67
752,464	70,23
752,896	69,73
753,327	70,23
753,758	69,99
754,19	70,16
754,621	70,12
755,052	69,85
755,483	70,19
755,914	70,28
756,344	70,02
756,775	70,1
757,206	70,09
757,636	70,03
758,066	69,89
758,497	70,04
758,927	70,14
759,357	70,08
759,787	70,14
760,217	69,92
760,647	69,48
761,076	69,63
761,506	69,64
761,935	69,53
762,365	69,97
762,794	69,4
763,223	69,68
763,653	69,55
764,082	69,01
764,51	69,48
764,939	69,53
765,368	69,19
765,797	69,16
766,225	69,13
766,654	68,98
767,082	68,85
767,51	69,55
767,938	68,79
768,367	68,91
768,795	68,96
769,222	69,05
769,65	68,82
770,078	68,95
770,505	69
770,933	68,88
771,36	69,31
771,788	68,4
772,215	68,59
772,642	68,67
773,069	68,8
773,496	68,53
773,923	68,32
774,349	68,37
774,776	68,55
775,203	68,54
775,629	68,5
776,055	68,14
776,482	68,21
776,908	68,02
777,334	68,15
777,76	68,41
778,186	68,43
778,611	68,47
779,037	68,46
779,463	68,1
779,888	67,97
780,314	67,75
780,739	68,25
781,164	68,35
781,589	68,15
782,014	68,25
782,439	67,87
782,864	68,29
783,289	68,37
783,713	67,84
784,138	68,42
784,562	67,6
784,987	67,85
785,411	67,72
785,835	67,37
786,259	67,65
786,683	68,38
787,107	67,9
787,531	68,72
787,954	68,09
788,378	67,97
788,802	67,86
789,225	67,7
789,648	67,94
790,071	66,99
790,495	68,25
790,918	68,11
791,34	67,68
791,763	67,8
792,186	67,34
792,609	67,65
793,031	67,61
793,454	67,45
793,876	68,13
794,298	67,98
794,721	67,55
795,143	68,08
795,565	67,45
795,986	67,35
796,408	67,75
796,83	67,37
797,252	67,71
797,673	67,69
798,094	68,07
798,516	67,69
798,937	67,99
799,358	66,77
799,779	67,35
800,2	67,72
800,621	67,33
801,042	67,22
801,462	67,54
801,883	67,31
802,303	67,25
802,724	67,39
803,144	67,52
803,564	67,27
803,984	67,46
804,404	67,42
804,824	67,7
805,244	67,62
805,664	67,78
806,084	67,57
806,503	67,7
806,923	67,73
807,342	67,26
807,761	67,15
808,18	67,11
808,599	67,16
809,018	67,54
809,437	67,19
809,856	67,07
810,275	67,01
810,693	67,2
811,112	67,44
811,53	67,12
811,949	67,49
812,367	67,72
812,785	67,46
813,203	67,43
813,621	67,29
814,039	67,12
814,457	67,13
814,874	66,88
815,292	67,51
815,709	67,15
816,127	67,5
816,544	67,38
816,961	67,01
817,378	67,84
817,795	67,26
818,212	67,1
818,629	67,77
819,046	66,97
819,462	67,38
819,879	66,88
820,295	67,27
820,712	67,42
821,128	67,23
821,544	67,44
821,96	67,52
822,376	67,29
822,792	66,93
823,208	67,31
823,624	67,06
824,039	67,48
824,455	67,58
824,87	67,14
825,286	67,37
825,701	66,72
826,116	66,77
826,531	67,51
826,946	67,12
827,361	66,81
827,776	67,21
828,19	66,93
828,605	66,51
829,02	67,26
829,434	67,07
829,848	67,2
830,263	67,38
830,677	66,8
831,091	66,92
831,505	66,59
831,919	66,82
832,332	67,14
832,746	67,29
833,16	66,47
833,573	67,1
833,987	67,63
834,4	67,18
834,813	66,38
835,226	66,57
835,639	67,33
836,052	66,22
836,465	67,23
836,878	67,06
837,29	66,37
837,703	66,52
838,116	67,01
838,528	67,17
838,94	66,96
839,352	67,06
839,765	66,57
840,177	67,08
840,589	67,29
841	66,72
841,412	67,2
841,824	66,73
842,235	66,69
842,647	66,95
843,058	67,29
843,47	67,07
843,881	67,06
844,292	66,7
844,703	67,15
845,114	66,59
845,525	67,06
845,935	66,6
846,346	67,19
846,757	66,78
847,167	66,47
847,577	66,44
847,988	66,92
848,398	66,95
848,808	67,19
849,218	67,29
849,628	66,98
850,038	67,17
850,448	66,76
850,857	66,88
851,267	66,86
851,676	66,82
852,086	67,11
852,495	66,91
852,904	66,91
853,313	66,5
853,722	66,61
854,131	67,06
854,54	66,6
854,949	66,6
855,357	66,71
855,766	67,16
856,174	66,61
856,583	66,71
856,991	67,05
857,399	67,61
857,807	66,83
858,215	66,87
858,623	67
859,031	66,07
859,439	66,92
859,846	66,93
860,254	66,51
860,661	67,19
861,069	66,92
861,476	66,65
861,883	66,23
862,29	66,25
862,697	66,62
863,104	66,92
863,511	66,62
863,918	66,47
864,325	67,21
864,731	66,72
865,138	66,65
865,544	66,67
865,95	66,69
866,357	66,38
866,763	66,61
867,169	66,58
867,575	66,62
867,98	66,52
868,386	66,6
868,792	67,28
869,197	66,64
869,603	66,53
870,008	66,78
870,414	67,01
870,819	66,63
871,224	66,56
871,629	66,75
872,034	66,82
872,439	66,04
872,844	66,95
873,248	66,19
873,653	66,81
874,057	66,57
874,462	66,75
874,866	66,74
875,27	66,8
875,674	67
876,078	66,43
876,482	66,35
876,886	66,18
877,29	66,68
877,694	66,8
878,097	66,52
878,501	66,29
878,904	66,65
879,308	66,63
879,711	66,74
880,114	66,49
880,517	66,78
880,92	66,79
881,323	66,79
881,726	66,91
882,128	66,79
882,531	66,77
882,934	66,72
883,336	67,09
883,738	66,74
884,141	66,84
884,543	66,56
884,945	67,04
885,347	66,46
885,749	66,79
886,151	66,93
886,552	67,25
886,954	66,16
887,355	66,93
887,757	66,22
888,158	66,72
888,56	66,26
888,961	66,84
889,362	66,35
889,763	66,8
890,164	66,96
890,565	66,32
890,965	66,36
891,366	66,57
891,767	66,86
892,167	66,51
892,567	66,75
892,968	66,75
893,368	66,38
893,768	66,43
894,168	66,48
894,568	66,38
894,968	66,3
895,368	66,51
895,767	66,95
896,167	66,39
896,566	66,5
896,966	66,45
897,365	66,55
897,764	66,97
898,164	66,55
898,563	66,56
898,962	66,69
899,361	66,77
899,759	66,57
900,158	66,17
900,557	66,58
900,955	66,79
901,354	66,18
901,752	66,33
902,15	66,27
902,548	67
902,947	66,9
903,345	67,23
903,742	66,43
904,14	66,4
904,538	66,64
904,936	66,82
905,333	66,24
905,731	65,91
906,128	65,83
906,525	66,29
906,923	66,94
907,32	66,82
907,717	66,59
908,114	66,72
908,511	66,55
908,907	67,53
909,304	66,72
909,701	66,57
910,097	66,97
910,494	66,25
910,89	67,3
911,286	66,07
911,682	66,93
912,078	67,21
912,474	67,22
912,87	66,8
913,266	66,23
913,662	66,8
914,058	66,25
914,453	66,72
914,849	66,09
915,244	66,24
915,639	66,61
916,034	66,23
916,43	66,65
916,825	66,64
917,22	66,78
917,614	66,74
918,009	66,99
918,404	66,03
918,798	66,37
919,193	66,78
919,587	66,73
919,982	66,24
920,376	65,77
920,77	66,32
921,164	66,12
921,558	65,89
921,952	65,82
922,346	66,02
922,74	66,04
923,133	66,39
923,527	66,61
923,92	66,1
924,314	66,27
924,707	65,86
925,1	66,44
925,493	66,86
925,886	66,23
926,279	65,99
926,672	66,32
927,065	66,04
927,457	66,43
927,85	66,06
928,243	66
928,635	66,24
929,027	66,3
929,42	66,32
929,812	65,94
930,204	66,82
930,596	66,38
930,988	66,61
931,379	65,97
931,771	66,21
932,163	66,25
932,554	65,56
932,946	65,34
933,337	65,8
933,729	66,54
934,12	66,01
934,511	66,03
934,902	65,64
935,293	65,99
935,684	65,82
936,075	66,59
936,465	66,76
936,856	65,43
937,246	66,94
937,637	66,01
938,027	65,67
938,417	64,93
938,808	65,81
939,198	64,61
939,588	66,22
939,978	65,91
940,368	65,08
940,757	66,34
941,147	66,33
941,537	65,31
941,926	66,12
942,315	66,61
942,705	64,91
943,094	65,53
943,483	66,58
943,872	64,69
944,261	65,07
944,65	65,26
945,039	65,43
945,428	65,63
945,816	65,73
946,205	65,5
946,593	65,55
946,982	65,86
947,37	65,57
947,758	65,3
948,146	65,58
948,534	65,64
948,922	65,48
949,31	63,94
949,698	65,8
950,086	65,02
950,473	65,12
950,861	66,12
951,248	64,98
951,636	64,79
952,023	65,14
952,41	65,38
952,797	64,59
953,184	65,31
953,571	64,97
953,958	64,8
954,345	64,67
954,731	65,09
955,118	64,27
955,505	63,66
955,891	64,46
956,277	65,23
956,664	64,15
957,05	64,4
957,436	64,16
957,822	64,17
958,208	64,29
958,594	64,2
958,979	64,5
959,365	64,17
959,751	64,2
960,136	64,38
960,522	64,06
960,907	64,27
961,292	63,3
961,677	64,8
962,062	64,63
962,447	64,86
962,832	64,87
963,217	64,6
963,602	64,24
963,986	64,32
964,371	64
964,756	64,4
965,14	64,49
965,524	64,71
965,908	64,78
966,293	64,34
966,677	64,65
967,061	65,74
967,445	63,94
967,828	64,24
968,212	64,51
968,596	64,09
968,979	64,64
969,363	64,21
969,746	65,13
970,129	64,12
970,513	64,37
970,896	64,86
971,279	64,68
971,662	64,67
972,045	64,5
972,428	65,39
972,81	64,5
973,193	64,81
973,575	64,28
973,958	63,67
974,34	64,07
974,723	64
975,105	64,39
975,487	64,77
975,869	63,91
976,251	64,75
976,633	64,02
977,015	64,78
977,396	64,6
977,778	64,21
978,16	64,16
978,541	64,07
978,922	64,73
979,304	64,11
979,685	64,44
980,066	64,37
980,447	65,09
980,828	65,34
981,209	64,54
981,59	64,47
981,97	63,7
982,351	63,73
982,732	64,58
983,112	64,17
983,493	64,34
983,873	64,28
984,253	64,34
984,633	64,81
985,013	64,57
985,393	64,84
985,773	64,26
986,153	64,96
986,533	64,67
986,912	65,35
987,292	65,28
987,671	64,22
988,051	65,1
988,43	64,82
988,809	64,19
989,188	65,25
989,567	64,58
989,946	64,84
990,325	64,81
990,704	64,59
991,083	64,78
991,461	64,63
991,84	65,01
992,218	64,65
992,597	65,27
992,975	65,05
993,353	64,57
993,732	64,24
994,11	65,3
994,488	65,13
994,866	63,98
995,243	64,69
995,621	64,86
995,999	64,42
996,376	65,43
996,754	64,65
997,131	64,9
997,509	65,29
997,886	63,95
998,263	65,09
998,64	64,28
999,017	64,65
999,394	65,04
999,771	65,87
1000,148	65,08
1000,524	64,75
1000,901	64,79
1001,277	65,01
1001,654	64,6
1002,03	65,77
1002,406	64,93
1002,783	64,55
1003,159	65,31
1003,535	64,54
1003,911	65,06
1004,286	65,2
1004,662	65,39
1005,038	65,43
1005,414	65,67
1005,789	64,45
1006,164	64,67
1006,54	65,27
1006,915	64,69
1007,29	65,06
1007,665	65,28
1008,04	65,34
1008,415	64,98
1008,79	64,78
1009,165	64,53
1009,54	64,78
1009,914	65,69
1010,289	65,48
1010,663	65,44
1011,038	65
1011,412	65,11
1011,786	65,08
1012,16	65,47
1012,535	64,92
1012,909	66,36
1013,282	65,6
1013,656	64,76
1014,03	65,03
1014,404	65,8
1014,777	64,84
1015,151	65,31
1015,524	65,4
1015,897	65,02
1016,271	65,77
1016,644	65,68
1017,017	66,28
1017,39	65,45
1017,763	64,99
1018,136	65,45
1018,508	66,55
1018,881	64,55
1019,254	65,72
1019,626	65,38
1019,999	65,3
1020,371	66,27
1020,743	65,91
1021,116	65,13
1021,488	65,89
1021,86	66,78
1022,232	65,82
1022,604	65,65
1022,975	66,8
1023,347	64,86
1023,719	65,63
1024,09	66,14
1024,462	65,81
1024,833	66,21
1025,204	66,84
1025,576	65,02
1025,947	64,47
1026,318	65,4
1026,689	66,87
1027,06	65,98
1027,431	67,1
1027,801	66,42
1028,172	65,67
1028,543	66,66
1028,913	66,39
1029,284	66,39
1029,654	66,46
1030,024	66,13
1030,394	65,97
1030,764	65,14
1031,135	65,66
1031,504	65,99
1031,874	65,96
1032,244	65,96
1032,614	65,49
1032,983	65,79
1033,353	65,16
1033,722	66,8
1034,092	66,22
1034,461	66,42
1034,83	65,25
1035,2	66,31
1035,569	65,25
1035,938	65,22
1036,307	66,23
1036,675	65,41
1037,044	66,28
1037,413	66,93
1037,781	66,19
1038,15	66,69
1038,518	65,79
1038,887	65,63
1039,255	65,91
1039,623	65,44
1039,991	65,52
1040,359	65,1
1040,727	66,61
1041,095	66,92
1041,463	65,79
1041,831	66,29
1042,198	65,71
1042,566	67,66
1042,933	65,82
1043,301	67,43
1043,668	65,85
1044,035	64,68
1044,402	67,02
1044,77	65,8
1045,137	67,01
1045,503	65,9
1045,87	65,36
1046,237	66,62
1046,604	67,02
1046,97	64,53
1047,337	68,1
1047,703	65,88
1048,07	67
1048,436	66,89
1048,802	66,48
1049,168	66,7
1049,534	65,08
1049,9	67,74
1050,266	67,33
1050,632	65,99
1050,998	66,69
1051,364	66,6
1051,729	67,09
1052,095	67,66
1052,46	66,69
1052,825	65,85
1053,191	66,21
1053,556	66,08
1053,921	65,59
1054,286	66,93
1054,651	67,69
1055,016	67,49
1055,381	66,28
1055,745	65,38
1056,11	66,7
1056,475	67,24
1056,839	65,63
1057,203	67,31
1057,568	65,61
1057,932	66,97
1058,296	66,13
1058,66	66,7
1059,024	68,4
1059,388	67,55
1059,752	66,8
1060,116	66,61
1060,48	69,45
1060,843	66,38
1061,207	65,07
1061,57	66,03
1061,934	66,73
1062,297	66,94
1062,66	66,7
1063,023	67,03
1063,386	68,32
1063,749	67,61
1064,112	67,35
1064,475	65,73
1064,838	65,55
1065,201	66,01
1065,563	65,99
1065,926	65,11
1066,288	68,28
1066,651	66,5
1067,013	67,16
1067,375	67,5
1067,737	68,9
1068,099	65,75
1068,461	66,64
1068,823	65,41
1069,185	65,6
1069,547	68,47
1069,909	64,5
1070,27	66,77
1070,632	65,08
1070,993	68,76
1071,355	66,07
1071,716	64,26
1072,077	68,1
1072,438	67,61
1072,799	67,04
1073,16	68,71
1073,521	66,07
1073,882	67,99
1074,243	67,63
1074,603	67,52
1074,964	66,24
1075,325	66,49
1075,685	63,31
1076,045	64,43
1076,406	66,45
1076,766	65,4
1077,126	65,76
1077,486	68,26
1077,846	67,06
1078,206	66,8
1078,566	66,72
1078,925	65,06
1079,285	67,66
1079,645	67,53
1080,004	65,75
1080,364	65,23
1080,723	65,91
1081,082	67,67
1081,442	65,01
1081,801	67,62
1082,16	65,3
1082,519	65,93
1082,878	68,52
1083,237	65,61
1083,595	66,29
1083,954	67,89
1084,313	63,38
1084,671	65,12
1085,03	66,52
1085,388	65,29
1085,746	67,95
1086,104	63,26
1086,463	65,38
1086,821	67,76
1087,179	65,38
1087,537	66,72
1087,894	66,83
1088,252	65,7
1088,61	65,07
1088,967	66,94
1089,325	67,29
1089,682	67,51
1090,04	69,24
1090,397	66,04
1090,754	68,78
1091,111	62,45
1091,469	67,95
1091,826	67,91
1092,182	68,35
1092,539	65,36
1092,896	66,09
1093,253	64,67
1093,609	67,67
1093,966	66,37
1094,322	65,74
1094,679	67,22
1095,035	67,02
1095,391	65,28
1095,748	65,48
1096,104	64,97
1096,46	67,86
1096,816	65,47
1097,171	65,46
1097,527	66,2
1097,883	67,68
1098,239	66,6
1098,594	66,1
1098,95	69,46
1099,305	66,93
1099,66	65,54
1100,016	65,42
1100,371	65,16
1100,726	66,79
1101,081	61,85
1101,436	68,66
1101,791	68,01
1102,146	64,8
1102,5	65,06
1102,855	64,74
1103,21	64,48
1103,564	65,47
1103,918	65,13
1104,273	66,79
1104,627	65,93
1104,981	63,24
1105,335	65,61
1105,69	68,16
1106,043	63,16
1106,397	62,99
1106,751	63,35
1107,105	68,89
1107,459	66,32
1107,812	69,29
1108,166	66,98
1108,519	64,13
1108,873	67,31
1109,226	71,13
1109,579	65,63
1109,932	69
1110,285	67,34
1110,638	69,88
1110,991	68,02
1111,344	63,48
1111,697	63,82
1112,05	65,56
1112,402	69,87
1112,755	67,46
1113,107	68,31
1113,46	70,26
1113,812	65,55
1114,164	69,93
1114,517	68,98
1114,869	75
1115,221	76,32
1115,573	73,48
1115,924	76,42
