Data from I4__Relative__8__00158.txt Node

Date: Wed Jan 31 18:42:22 CET 2024
User: diatiterra
Spectrometer: HDX00911
Trigger mode: 0
Integration Time (sec): 6,000000E-3
Scans to average: 2
Nonlinearity correction enabled: false
Boxcar width: 0
Storing dark spectrum: false
XAxis mode: Wavelengths
Number of Pixels in Spectrum: 2068
>>>>>Begin Spectral Data<<<<<
194,468	257,55
195,025	180
195,581	237,8
196,138	229,49
196,694	161,11
197,251	139,39
197,807	112,6
198,363	113,6
198,919	102,76
199,474	108,46
200,03	115,16
200,586	125
201,141	97,74
201,696	101,34
202,251	110,98
202,806	105,24
203,361	112,59
203,916	104,86
204,471	117,15
205,025	129,03
205,58	99,64
206,134	124
206,688	116,54
207,242	118,58
207,796	115,41
208,35	113,41
208,904	116,9
209,457	102,43
210,011	108,51
210,564	112,68
211,117	119,92
211,67	117,16
212,223	107,88
212,776	121,77
213,329	107,33
213,881	142,65
214,434	103,95
214,986	128,93
215,538	119,12
216,09	104,23
216,642	124,38
217,194	121,59
217,746	123,68
218,297	119,08
218,849	109,93
219,4	136,55
219,951	114,92
220,502	109,46
221,053	127,86
221,604	118,46
222,155	117,86
222,705	104,04
223,256	116,42
223,806	124,8
224,356	117,69
224,906	125,81
225,456	114,34
226,006	114,29
226,556	95,13
227,106	121,37
227,655	105,21
228,204	122,5
228,754	101,41
229,303	110,36
229,852	105,04
230,401	107,84
230,949	106,12
231,498	103,52
232,047	97,08
232,595	109,31
233,143	116,93
233,691	116,67
234,239	108,93
234,787	114,8
235,335	114,18
235,883	106,29
236,43	114,77
236,978	118,85
237,525	109,49
238,072	103,9
238,619	106,06
239,166	101,77
239,713	108,76
240,26	106,43
240,806	114,93
241,353	107,54
241,899	108,04
242,445	111,31
242,991	116,41
243,537	107,2
244,083	115,65
244,629	115
245,174	119,47
245,72	110,37
246,265	109,52
246,81	122,8
247,355	115,48
247,9	103,73
248,445	115,87
248,99	108,71
249,534	132,61
250,079	114,29
250,623	107,41
251,168	120,25
251,712	113,28
252,256	115,98
252,8	120,77
253,343	103,21
253,887	122,98
254,43	117,94
254,974	117,56
255,517	104,79
256,06	126,54
256,603	105,93
257,146	113,18
257,689	116,54
258,232	131,36
258,774	112,06
259,317	126,69
259,859	127,98
260,401	119,38
260,943	97,52
261,485	103,19
262,027	119,2
262,569	111,19
263,11	113,08
263,652	130,31
264,193	114,88
264,734	103,65
265,275	127,46
265,816	107,63
266,357	117,83
266,898	115,38
267,438	115,35
267,979	109,71
268,519	104,1
269,059	135,51
269,6	113,16
270,14	129,03
270,68	109,42
271,219	128,39
271,759	109,4
272,298	115,79
272,838	119,62
273,377	118,25
273,916	103,96
274,455	107,66
274,994	107,6
275,533	103,99
276,072	120,33
276,61	105,8
277,149	117,5
277,687	112,78
278,225	94,33
278,763	131,14
279,301	122,08
279,839	125,4
280,377	114,75
280,914	99,65
281,452	130,77
281,989	120,25
282,526	122,05
283,064	119,75
283,601	98,31
284,137	116,12
284,674	121,67
285,211	127,63
285,747	111,36
286,284	141,44
286,82	126,86
287,356	99,34
287,892	117,44
288,428	121,9
288,964	134,03
289,5	123,14
290,035	118
290,571	115,97
291,106	123,58
291,641	133,04
292,176	112,11
292,711	123,98
293,246	110,38
293,781	119,01
294,315	102,11
294,85	139,35
295,384	117,62
295,918	110,29
296,453	105,97
296,987	120,66
297,52	121,49
298,054	102,67
298,588	120,83
299,121	112,31
299,655	114,6
300,188	119,58
300,721	119,92
301,254	115,73
301,787	115,23
302,32	118,29
302,853	114,4
303,385	111,07
303,918	110,08
304,45	125
304,982	102,48
305,514	108,91
306,046	111,16
306,578	105,04
307,11	116,28
307,641	129,31
308,173	120,66
308,704	111,16
309,236	107,14
309,767	111,7
310,298	110,48
310,829	130
311,359	117,74
311,89	125,63
312,421	123,42
312,951	119,51
313,481	97,59
314,012	108,58
314,542	118,22
315,072	105,34
315,601	118
316,131	115,75
316,661	112,08
317,19	110,37
317,72	119,01
318,249	115,08
318,778	116,02
319,307	110,94
319,836	115,93
320,365	116,52
320,893	114,88
321,422	119,11
321,95	126,69
322,479	107,63
323,007	120,91
323,535	105,71
324,063	122
324,591	120,8
325,118	118,25
325,646	121,01
326,173	114,17
326,701	123,58
327,228	127,59
327,755	113,53
328,282	111,83
328,809	129,66
329,336	118,11
329,862	110,29
330,389	112,5
330,915	113,78
331,441	115,27
331,968	131,53
332,494	109,47
333,02	109,58
333,545	114,55
334,071	126,45
334,597	103,17
335,122	109,26
335,648	124,57
336,173	104,55
336,698	95,57
337,223	112,5
337,748	103,47
338,272	102,4
338,797	117,75
339,322	93,07
339,846	105,88
340,37	117,34
340,894	104,86
341,419	109,77
341,942	105,94
342,466	100,96
342,99	99,33
343,514	111,62
344,037	94,3
344,56	121,85
345,084	106,85
345,607	101,74
346,13	98,24
346,653	105,33
347,175	98,4
347,698	99,37
348,221	92,86
348,743	93,17
349,265	97,48
349,787	85,89
350,309	91,14
350,831	90,43
351,353	92,99
351,875	85,96
352,397	100,7
352,918	95,07
353,439	97,02
353,961	86,92
354,482	88,89
355,003	90,41
355,524	89,17
356,044	82,39
356,565	88,25
357,086	90,68
357,606	78,02
358,126	78,19
358,646	76,28
359,167	86,49
359,687	83,9
360,206	76,23
360,726	71,8
361,246	82,18
361,765	86,44
362,285	70
362,804	79,21
363,323	70,24
363,842	75,82
364,361	77,36
364,88	71,18
365,398	70,31
365,917	73,11
366,435	82,03
366,954	69,42
367,472	71,7
367,99	73,93
368,508	61,94
369,026	76,36
369,544	62,28
370,061	70,38
370,579	63,52
371,096	72,71
371,613	61,85
372,131	59,25
372,648	65,16
373,165	64,45
373,681	60,13
374,198	67,58
374,715	60,34
375,231	61,74
375,747	56,9
376,264	55,44
376,78	59,17
377,296	58,74
377,812	54,65
378,327	57,45
378,843	56,14
379,359	57,95
379,874	58,13
380,389	52,37
380,905	47,61
381,42	53,34
381,935	54,73
382,449	51,62
382,964	52,29
383,479	49,28
383,993	49,03
384,508	47,24
385,022	46,89
385,536	47,89
386,05	44,75
386,564	43,41
387,078	44,62
387,592	41,85
388,105	44,09
388,619	40,62
389,132	38,88
389,645	43,56
390,158	36,48
390,671	39,82
391,184	39,07
391,697	36,77
392,21	34,15
392,722	35,12
393,235	38,74
393,747	34,92
394,259	36,89
394,771	35,37
395,283	34,16
395,795	31,81
396,307	35,51
396,818	33,42
397,33	29
397,841	31,42
398,353	31,26
398,864	32,26
399,375	30,8
399,886	28,31
400,397	29,14
400,907	27,88
401,418	26,28
401,928	25,59
402,439	27,75
402,949	23,62
403,459	24,97
403,969	24,72
404,479	23,82
404,989	22,63
405,498	23,06
406,008	22,86
406,517	21,27
407,027	19,63
407,536	19,35
408,045	18,12
408,554	17,28
409,063	16,05
409,572	16,59
410,08	16,78
410,589	16,25
411,097	15,43
411,606	13,77
412,114	15,12
412,622	13,56
413,13	14,17
413,638	13,99
414,145	12,7
414,653	12,69
415,16	12,06
415,668	11,94
416,175	10,75
416,682	11,21
417,189	9,78
417,696	10,52
418,203	10,4
418,71	10,72
419,216	10,1
419,723	10,3
420,229	9,72
420,735	9,48
421,242	9,3
421,748	9,37
422,254	9,27
422,759	8,57
423,265	8,68
423,771	8,7
424,276	8,72
424,781	8,33
425,287	8,4
425,792	8,26
426,297	8,39
426,802	7,95
427,306	7,92
427,811	8,07
428,316	8,4
428,82	8,07
429,324	8,1
429,829	8,1
430,333	7,95
430,837	7,45
431,34	7,35
431,844	7,25
432,348	6,91
432,851	7,15
433,355	7,36
433,858	7,16
434,361	7,1
434,864	6,59
435,367	7,4
435,87	7,62
436,373	7,37
436,876	7,29
437,378	7
437,88	6,66
438,383	6,68
438,885	7,14
439,387	7
439,889	7
440,391	6,54
440,892	6,92
441,394	6,89
441,896	6,56
442,397	6,7
442,898	6,52
443,399	6,83
443,9	6,58
444,401	6,25
444,902	6,51
445,403	6,35
445,903	6,44
446,404	6,93
446,904	6,77
447,405	6,54
447,905	6,64
448,405	6,55
448,905	6,69
449,404	6,69
449,904	6,47
450,404	6,33
450,903	6,94
451,403	6,41
451,902	6,66
452,401	6,46
452,9	6,99
453,399	6,6
453,898	6,19
454,396	6,68
454,895	6,17
455,393	6,35
455,892	6,46
456,39	6,42
456,888	6,68
457,386	6,23
457,884	6,46
458,382	6,68
458,879	6,39
459,377	6,69
459,874	6,47
460,372	6,45
460,869	6,46
461,366	6,49
461,863	6,3
462,36	6,32
462,857	6,3
463,353	6,2
463,85	6,53
464,346	6,46
464,843	6,4
465,339	6,25
465,835	6,43
466,331	6,27
466,827	6,35
467,323	6,15
467,818	6,46
468,314	6,49
468,809	6,32
469,305	6
469,8	6,28
470,295	6,06
470,79	6,09
471,285	6,08
471,78	5,86
472,274	6,2
472,769	6,05
473,263	6,09
473,758	6,17
474,252	5,98
474,746	6,17
475,24	6,27
475,734	5,77
476,228	6,09
476,721	5,92
477,215	5,89
477,708	5,92
478,202	5,97
478,695	6,19
479,188	6,24
479,681	6,01
480,174	6,13
480,667	5,99
481,159	6,08
481,652	6,05
482,144	5,94
482,637	6,19
483,129	6,07
483,621	6,02
484,113	6,3
484,605	6,06
485,097	6,17
485,588	6,05
486,08	6,03
486,571	6,25
487,063	6,13
487,554	5,97
488,045	6,26
488,536	6,23
489,027	6,25
489,518	6,27
490,008	6,03
490,499	6,28
490,989	6,31
491,48	6,04
491,97	6,16
492,46	6,31
492,95	6,41
493,44	6,57
493,93	6,36
494,419	6,71
494,909	6,62
495,398	6,56
495,888	6,61
496,377	6,56
496,866	6,84
497,355	6,68
497,844	6,85
498,333	7,19
498,821	7,15
499,31	7,25
499,798	7,07
500,287	7,13
500,775	7,4
501,263	7,45
501,751	7,6
502,239	7,78
502,727	7,92
503,215	7,82
503,702	7,95
504,19	8,1
504,677	8,75
505,164	8,77
505,651	8,75
506,139	9,08
506,625	8,95
507,112	9,33
507,599	9,51
508,086	9,5
508,572	9,86
509,058	9,99
509,545	10,3
510,031	10,46
510,517	10,6
511,003	10,84
511,489	11,21
511,974	11,72
512,46	11,56
512,946	12,08
513,431	12,49
513,916	12,63
514,401	12,69
514,887	13,34
515,371	13,54
515,856	13,76
516,341	13,98
516,826	14,54
517,31	14,69
517,795	14,69
518,279	14,79
518,763	15,63
519,247	16,2
519,731	16,35
520,215	16,93
520,699	17,05
521,182	17,35
521,666	17,79
522,149	18,04
522,633	18,52
523,116	18,87
523,599	19,51
524,082	19,3
524,565	19,48
525,048	20,12
525,53	20,31
526,013	20,6
526,495	20,87
526,978	20,89
527,46	21,59
527,942	21,64
528,424	22,32
528,906	22,68
529,388	22,6
529,87	23,36
530,351	23,04
530,833	23,29
531,314	23,43
531,795	23,34
532,277	24,01
532,758	23,85
533,238	24,2
533,719	24,23
534,2	24,26
534,681	24,64
535,161	24,54
535,642	24,97
536,122	24,95
536,602	24,6
537,082	24,74
537,562	25,43
538,042	25,12
538,522	25,17
539,001	25,69
539,481	25,6
539,96	25,37
540,44	25,34
540,919	25,7
541,398	25,71
541,877	25,72
542,356	25,34
542,835	25,49
543,313	25,63
543,792	26,33
544,27	26,24
544,749	26,32
545,227	26,05
545,705	26,32
546,183	26,48
546,661	26,63
547,139	26,49
547,616	26,07
548,094	26,32
548,571	27,03
549,049	26,64
549,526	26,39
550,003	27,08
550,48	26,52
550,957	26,49
551,434	26,54
551,911	26,86
552,387	27,13
552,864	26,78
553,34	27,02
553,817	26,26
554,293	26,81
554,769	26,9
555,245	26,21
555,721	26,88
556,197	26,83
556,672	26,05
557,148	26,84
557,623	26,96
558,099	26,76
558,574	26,64
559,049	26,23
559,524	26,23
559,999	26,25
560,474	25,86
560,948	25,85
561,423	25,88
561,897	25,79
562,372	25,79
562,846	25,43
563,32	25,73
563,794	25,32
564,268	25,63
564,742	25,01
565,216	24,96
565,69	24,75
566,163	24,98
566,636	24,44
567,11	24,41
567,583	23,83
568,056	23,9
568,529	23,98
569,002	23,42
569,475	23,44
569,947	23,24
570,42	23
570,892	22,88
571,365	22,71
571,837	22,6
572,309	22,54
572,781	22,07
573,253	21,93
573,725	21,57
574,197	21,47
574,668	21,22
575,14	21,01
575,611	20,93
576,082	20,67
576,554	20,4
577,025	20,48
577,496	20,15
577,967	20,05
578,437	19,8
578,908	19,56
579,379	19,81
579,849	19,27
580,319	18,96
580,79	19,07
581,26	19,03
581,73	18,96
582,2	18,51
582,669	18,35
583,139	18,48
583,609	18,3
584,078	18,45
584,548	18,11
585,017	17,99
585,486	17,78
585,955	17,79
586,424	17,64
586,893	17,56
587,362	17,45
587,83	17,49
588,299	17,33
588,767	17,35
589,236	17,44
589,704	17,03
590,172	16,9
590,64	16,95
591,108	16,74
591,576	16,87
592,043	16,58
592,511	16,4
592,978	16,73
593,446	16,3
593,913	16,55
594,38	16,31
594,847	16,31
595,314	16,31
595,781	16,15
596,248	15,99
596,715	16,19
597,181	16,13
597,647	16,09
598,114	15,94
598,58	15,76
599,046	16,08
599,512	16,01
599,978	15,58
600,444	15,8
600,91	15,78
601,375	15,76
601,841	15,6
602,306	15,59
602,771	15,46
603,236	15,43
603,702	15,47
604,167	15,3
604,631	15,38
605,096	15,1
605,561	15,19
606,025	15,06
606,49	15,11
606,954	14,92
607,418	14,66
607,882	14,56
608,347	14,7
608,81	14,58
609,274	14,27
609,738	14,38
610,202	14,41
610,665	14,26
611,128	13,96
611,592	14,13
612,055	13,85
612,518	13,86
612,981	13,99
613,444	13,51
613,907	13,39
614,369	13,35
614,832	13,39
615,294	13,04
615,757	13,21
616,219	13,15
616,681	12,79
617,143	12,97
617,605	12,77
618,067	12,86
618,529	12,51
618,99	12,59
619,452	12,51
619,913	12,28
620,375	12,43
620,836	12,28
621,297	12,29
621,758	12,24
622,219	12,01
622,68	11,9
623,14	11,99
623,601	11,73
624,061	11,97
624,522	11,83
624,982	11,79
625,442	11,96
625,902	11,71
626,362	11,81
626,822	11,78
627,282	11,67
627,742	11,74
628,201	11,59
628,661	11,73
629,12	11,65
629,579	11,5
630,038	11,56
630,497	11,57
630,956	11,5
631,415	11,4
631,874	11,6
632,332	11,52
632,791	11,32
633,249	11,26
633,708	11,46
634,166	11,17
634,624	11,22
635,082	10,99
635,54	11,19
635,998	10,84
636,455	10,9
636,913	10,82
637,37	10,72
637,828	10,56
638,285	10,56
638,742	10,46
639,199	10,08
639,656	10,12
640,113	10,08
640,57	9,92
641,027	9,74
641,483	9,73
641,94	9,44
642,396	9,45
642,852	9,27
643,309	9,06
643,765	8,98
644,221	8,78
644,676	8,68
645,132	8,5
645,588	8,52
646,043	8,19
646,499	8,14
646,954	8,06
647,409	8,21
647,864	8
648,319	7,88
648,774	7,67
649,229	7,66
649,684	7,67
650,139	7,51
650,593	7,58
651,047	7,55
651,502	7,35
651,956	7,35
652,41	7,2
652,864	7,26
653,318	7,21
653,772	7,04
654,225	7,18
654,679	7,02
655,133	7,08
655,586	7
656,039	6,98
656,492	6,85
656,946	6,78
657,399	6,76
657,851	6,7
658,304	6,71
658,757	6,59
659,209	6,45
659,662	6,46
660,114	6,3
660,567	6,31
661,019	6,19
661,471	6,16
661,923	6,08
662,375	6,01
662,826	5,96
663,278	5,9
663,73	5,86
664,181	5,88
664,632	5,82
665,084	5,77
665,535	5,67
665,986	5,7
666,437	5,67
666,888	5,61
667,338	5,6
667,789	5,66
668,24	5,69
668,69	5,61
669,14	5,66
669,591	5,67
670,041	5,65
670,491	5,82
670,941	5,74
671,391	5,76
671,84	5,82
672,29	5,82
672,74	6,03
673,189	5,94
673,638	6,08
674,088	6,14
674,537	6,14
674,986	6,34
675,435	6,33
675,883	6,44
676,332	6,4
676,781	6,69
677,229	6,68
677,678	6,88
678,126	6,95
678,574	7,16
679,022	7,23
679,47	7,45
679,918	7,43
680,366	7,52
680,814	7,78
681,261	7,7
681,709	7,94
682,156	8,02
682,604	8,16
683,051	8,29
683,498	8,44
683,945	8,5
684,392	8,69
684,839	8,84
685,286	8,9
685,732	9,05
686,179	9,18
686,625	9,37
687,071	9,46
687,518	9,8
687,964	9,7
688,41	10,05
688,856	10,41
689,301	10,64
689,747	10,92
690,193	11,23
690,638	11,54
691,084	11,97
691,529	12,21
691,974	12,85
692,419	13,23
692,864	13,94
693,309	14,18
693,754	14,84
694,199	15,43
694,643	15,76
695,088	16,42
695,532	17,04
695,977	17,66
696,421	18,09
696,865	18,73
697,309	19,34
697,753	19,98
698,197	20,68
698,64	21,21
699,084	21,99
699,527	22,51
699,971	23,19
700,414	23,85
700,857	24,29
701,3	24,8
701,743	25,65
702,186	26,16
702,629	26,85
703,072	27,51
703,515	27,99
703,957	28,13
704,399	29,04
704,842	29,37
705,284	29,83
705,726	30,57
706,168	30,94
706,61	31,73
707,052	31,73
707,494	32,69
707,935	33,02
708,377	33,62
708,818	34,21
709,26	34,3
709,701	34,89
710,142	35,76
710,583	35,46
711,024	35,93
711,465	36,62
711,905	36,89
712,346	37,25
712,787	37,49
713,227	38,12
713,667	38,66
714,108	38,84
714,548	39,29
714,988	39,76
715,428	40,3
715,868	40,89
716,307	40,61
716,747	41,26
717,186	41,31
717,626	41,53
718,065	42,24
718,504	42,44
718,944	42,77
719,383	43,16
719,822	43,25
720,261	43,46
720,699	43,94
721,138	44
721,576	44,38
722,015	44,81
722,453	44,73
722,892	44,64
723,33	45,6
723,768	45,98
724,206	45,95
724,644	45,82
725,081	46,33
725,519	46,45
725,957	46,76
726,394	47,06
726,832	46,99
727,269	47,32
727,706	47,3
728,143	47,29
728,58	47,84
729,017	47,76
729,454	47,98
729,89	48,04
730,327	48,41
730,764	48,76
731,2	48,69
731,636	48,57
732,072	48,94
732,509	49,1
732,945	48,85
733,38	49,15
733,816	49,37
734,252	49,03
734,688	49,34
735,123	49,17
735,559	49,41
735,994	49,36
736,429	49,8
736,864	49,87
737,299	49,71
737,734	50,39
738,169	49,84
738,604	49,96
739,038	49,55
739,473	50,12
739,907	49,92
740,342	49,96
740,776	50,1
741,21	49,94
741,644	50,14
742,078	50,17
742,512	49,89
742,946	50,15
743,379	50,21
743,813	50,15
744,246	50,15
744,68	50,2
745,113	50,05
745,546	49,93
745,979	50,05
746,412	50,08
746,845	49,93
747,278	50,26
747,711	49,67
748,143	49,86
748,576	50,17
749,008	50,15
749,441	49,92
749,873	49,66
750,305	50,18
750,737	49,77
751,169	49,46
751,601	49,57
752,032	49,91
752,464	49,3
752,896	49,33
753,327	49,66
753,758	49,5
754,19	49,58
754,621	49,4
755,052	49,37
755,483	49,52
755,914	49,22
756,344	49,29
756,775	49,33
757,206	49,14
757,636	49,47
758,066	49,26
758,497	49,08
758,927	49,42
759,357	49,29
759,787	48,77
760,217	49,04
760,647	49,07
761,076	48,97
761,506	48,59
761,935	48,69
762,365	48,75
762,794	48,65
763,223	49,01
763,653	48,91
764,082	48,34
764,51	48,93
764,939	48,84
765,368	48,49
765,797	48,56
766,225	48,56
766,654	48,21
767,082	48,25
767,51	48,44
767,938	48,07
768,367	48,18
768,795	48,43
769,222	48,49
769,65	48,67
770,078	48,2
770,505	48,34
770,933	48,31
771,36	48,51
771,788	48
772,215	48,08
772,642	47,97
773,069	48,14
773,496	47,96
773,923	47,76
774,349	48,32
774,776	48,09
775,203	47,76
775,629	47,95
776,055	47,56
776,482	47,79
776,908	47,67
777,334	47,88
777,76	47,9
778,186	47,74
778,611	48,02
779,037	47,91
779,463	47,89
779,888	47,71
780,314	47,65
780,739	48,04
781,164	47,79
781,589	47,36
782,014	47,73
782,439	47,86
782,864	47,52
783,289	48,21
783,713	47,68
784,138	47,47
784,562	47,42
784,987	47,64
785,411	47,18
785,835	47,1
786,259	47,39
786,683	47,98
787,107	47,28
787,531	47,25
787,954	47,57
788,378	47,66
788,802	47,36
789,225	47,54
789,648	47,27
790,071	47,13
790,495	47,62
790,918	47,46
791,34	47,45
791,763	47,1
792,186	47,15
792,609	47,29
793,031	47,31
793,454	47,42
793,876	47,74
794,298	47,34
794,721	47,09
795,143	47,42
795,565	47,29
795,986	47,03
796,408	47,23
796,83	47,04
797,252	47,46
797,673	47,45
798,094	47,66
798,516	47,65
798,937	47,63
799,358	47,06
799,779	47,22
800,2	47,45
800,621	47,16
801,042	46,96
801,462	47,08
801,883	47,02
802,303	46,9
802,724	47,25
803,144	47,07
803,564	47,46
803,984	47,49
804,404	47,31
804,824	47,06
805,244	47,18
805,664	47,41
806,084	47,31
806,503	47,23
806,923	47,29
807,342	47,12
807,761	46,89
808,18	46,89
808,599	46,95
809,018	47,25
809,437	47,23
809,856	46,67
810,275	47,1
810,693	47,08
811,112	47,61
811,53	47,34
811,949	46,96
812,367	47,22
812,785	47,24
813,203	47,33
813,621	46,98
814,039	47,1
814,457	47,09
814,874	46,78
815,292	47,08
815,709	46,83
816,127	47,33
816,544	47,23
816,961	46,8
817,378	47,42
817,795	47,03
818,212	47,19
818,629	47,64
819,046	47,1
819,462	47,01
819,879	46,92
820,295	46,91
820,712	46,92
821,128	46,87
821,544	46,86
821,96	46,86
822,376	46,91
822,792	46,92
823,208	46,86
823,624	47,56
824,039	46,94
824,455	47,07
824,87	46,52
825,286	47,03
825,701	46,91
826,116	46,83
826,531	46,91
826,946	46,94
827,361	46,86
827,776	46,99
828,19	46,94
828,605	46,37
829,02	46,73
829,434	46,71
829,848	47,1
830,263	47,43
830,677	46,68
831,091	46,62
831,505	46,77
831,919	46,96
832,332	47,03
832,746	46,64
833,16	46,56
833,573	46,78
833,987	46,78
834,4	46,5
834,813	46,07
835,226	46,46
835,639	46,76
836,052	46,67
836,465	46,9
836,878	46,73
837,29	47
837,703	46,65
838,116	46,89
838,528	46,97
838,94	46,88
839,352	46,98
839,765	46,57
840,177	46,86
840,589	46,8
841	46,66
841,412	46,67
841,824	46,39
842,235	46,55
842,647	46,16
843,058	46,72
843,47	46,52
843,881	46,59
844,292	46,59
844,703	46,64
845,114	46,6
845,525	47,08
845,935	46,42
846,346	46,69
846,757	46,46
847,167	46,44
847,577	46,47
847,988	46,61
848,398	46,33
848,808	46,8
849,218	46,83
849,628	46,58
850,038	46,69
850,448	46,42
850,857	46,78
851,267	46,99
851,676	46,43
852,086	46,79
852,495	46,97
852,904	46,57
853,313	46,16
853,722	46,47
854,131	46,4
854,54	46,18
854,949	46,09
855,357	46,53
855,766	46,35
856,174	46,41
856,583	46,39
856,991	46,22
857,399	46,88
857,807	46,2
858,215	46,74
858,623	47,03
859,031	46,46
859,439	46,94
859,846	46,74
860,254	46,4
860,661	47,11
861,069	46,43
861,476	46,37
861,883	46,34
862,29	46,05
862,697	46,37
863,104	46,32
863,511	46,26
863,918	46,23
864,325	46,05
864,731	46,29
865,138	46,23
865,544	46,46
865,95	46,72
866,357	46,44
866,763	46,56
867,169	46,44
867,575	46,7
867,98	46,43
868,386	46,35
868,792	46,48
869,197	46,44
869,603	46,43
870,008	45,95
870,414	46,93
870,819	45,88
871,224	46,27
871,629	46,4
872,034	46,22
872,439	45,82
872,844	46,59
873,248	46,52
873,653	46,53
874,057	46,17
874,462	46,51
874,866	46,48
875,27	46,31
875,674	47,01
876,078	46,35
876,482	46,35
876,886	46,44
877,29	46,28
877,694	46,62
878,097	46
878,501	45,92
878,904	45,97
879,308	46,07
879,711	46
880,114	45,95
880,517	46,62
880,92	46,79
881,323	46,34
881,726	46,73
882,128	46,28
882,531	46,59
882,934	46,3
883,336	46,25
883,738	46,41
884,141	46,42
884,543	46,81
884,945	46,24
885,347	46,49
885,749	46,16
886,151	46,48
886,552	46,48
886,954	45,94
887,355	46,45
887,757	46,25
888,158	46,16
888,56	46,33
888,961	46,48
889,362	46,37
889,763	46,53
890,164	46,68
890,565	46,34
890,965	46,61
891,366	46,52
891,767	46,5
892,167	46,29
892,567	46,76
892,968	46,36
893,368	46,04
893,768	46,13
894,168	46,01
894,568	45,74
894,968	46,07
895,368	45,98
895,767	46,49
896,167	46,26
896,566	46,12
896,966	46,21
897,365	46,44
897,764	46,24
898,164	46,32
898,563	46,5
898,962	46,55
899,361	46,68
899,759	46,35
900,158	45,98
900,557	46,01
900,955	45,94
901,354	46,16
901,752	45,86
902,15	46,17
902,548	46,04
902,947	46,09
903,345	46,27
903,742	46,1
904,14	46,36
904,538	46,33
904,936	46,62
905,333	46,04
905,731	46,72
906,128	46,19
906,525	46,36
906,923	46,81
907,32	46,53
907,717	46,37
908,114	46,51
908,511	46,75
908,907	46,51
909,304	46,56
909,701	46,02
910,097	46,28
910,494	45,89
910,89	46,55
911,286	46,13
911,682	46,76
912,078	46,24
912,474	46,59
912,87	46,71
913,266	46,09
913,662	45,84
914,058	46,09
914,453	46,22
914,849	46,5
915,244	46,29
915,639	46,44
916,034	46,04
916,43	46,6
916,825	46,52
917,22	46,36
917,614	46,51
918,009	46,37
918,404	46,05
918,798	45,99
919,193	46,55
919,587	46,28
919,982	46,5
920,376	46,11
920,77	46,38
921,164	46,4
921,558	46,4
921,952	46,11
922,346	46,35
922,74	46,56
923,133	46,34
923,527	46,32
923,92	46,24
924,314	46,27
924,707	45,88
925,1	46,44
925,493	46,85
925,886	45,64
926,279	45,81
926,672	46,36
927,065	45,73
927,457	46,3
927,85	45,74
928,243	45,83
928,635	46,58
929,027	46,19
929,42	46,33
929,812	45,86
930,204	47,07
930,596	46,73
930,988	46,26
931,379	46,39
931,771	46,11
932,163	46,31
932,554	46,32
932,946	45,37
933,337	46,29
933,729	46,83
934,12	45,94
934,511	46,34
934,902	46,21
935,293	45,65
935,684	46,32
936,075	46,6
936,465	46,39
936,856	45,76
937,246	46,59
937,637	46,24
938,027	46,17
938,417	45,71
938,808	46,57
939,198	45,85
939,588	46,74
939,978	46,25
940,368	46,12
940,757	46,38
941,147	46,66
941,537	45,99
941,926	46,51
942,315	46,99
942,705	46,15
943,094	46
943,483	46,44
943,872	46,23
944,261	46,17
944,65	45,81
945,039	46,99
945,428	47,51
945,816	45,88
946,205	46,39
946,593	46,34
946,982	46,73
947,37	47,17
947,758	46,28
948,146	46,29
948,534	45,81
948,922	46,39
949,31	45,98
949,698	47,39
950,086	45,79
950,473	46,17
950,861	46,75
951,248	45,51
951,636	46,47
952,023	45,66
952,41	46,1
952,797	45,97
953,184	46,01
953,571	46,19
953,958	45,28
954,345	45,03
954,731	45,75
955,118	45,76
955,505	45
955,891	45,43
956,277	46,19
956,664	45,47
957,05	44,8
957,436	45,46
957,822	44,84
958,208	45,07
958,594	45,27
958,979	45,33
959,365	45,3
959,751	45,3
960,136	45,73
960,522	45,54
960,907	45,66
961,292	44,78
961,677	45,44
962,062	45,61
962,447	45,43
962,832	44,89
963,217	45,64
963,602	45,31
963,986	45,35
964,371	45,63
964,756	45,4
965,14	44,84
965,524	45,71
965,908	45,2
966,293	44,4
966,677	44,52
967,061	45,64
967,445	45,11
967,828	45,1
968,212	45,06
968,596	44,91
968,979	45,11
969,363	45,76
969,746	45,4
970,129	45,17
970,513	45,32
970,896	45,15
971,279	45,84
971,662	45,34
972,045	44,99
972,428	46,11
972,81	45,69
973,193	45,49
973,575	45,64
973,958	45,22
974,34	45,3
974,723	45,03
975,105	45,46
975,487	45,49
975,869	45,18
976,251	46,05
976,633	45,39
977,015	45,66
977,396	45,45
977,778	45,7
978,16	45,26
978,541	45,17
978,922	45,63
979,304	45,56
979,685	46,03
980,066	45,39
980,447	45,52
980,828	45,83
981,209	45,78
981,59	45,48
981,97	45,43
982,351	45,29
982,732	45,62
983,112	45,72
983,493	46,05
983,873	46,36
984,253	45,36
984,633	45,82
985,013	45,8
985,393	46,18
985,773	45,96
986,153	45,65
986,533	46,06
986,912	46,13
987,292	45,71
987,671	45,51
988,051	46,43
988,43	45,29
988,809	45,35
989,188	46,39
989,567	45,59
989,946	45,57
990,325	45,95
990,704	45,59
991,083	45,77
991,461	46,33
991,84	46,28
992,218	46,08
992,597	46,04
992,975	46,96
993,353	45,69
993,732	45,77
994,11	46,57
994,488	46,51
994,866	45,64
995,243	45,79
995,621	46,68
995,999	46,12
996,376	46,4
996,754	45,99
997,131	46,17
997,509	45,92
997,886	45,61
998,263	46,58
998,64	45,68
999,017	45,91
999,394	46,76
999,771	46,57
1000,148	45,74
1000,524	46,25
1000,901	45,85
1001,277	46,79
1001,654	46,3
1002,03	47,12
1002,406	46,26
1002,783	46,46
1003,159	46,44
1003,535	46,57
1003,911	46,06
1004,286	46,76
1004,662	46,52
1005,038	46,55
1005,414	46,84
1005,789	46,66
1006,164	46,5
1006,54	46,92
1006,915	46,38
1007,29	46,37
1007,665	46,94
1008,04	46,47
1008,415	46,91
1008,79	46,43
1009,165	46,42
1009,54	46,6
1009,914	47,12
1010,289	46,88
1010,663	47,3
1011,038	46,88
1011,412	46,7
1011,786	46,88
1012,16	47,51
1012,535	46,68
1012,909	47,45
1013,282	47,69
1013,656	47,05
1014,03	46,81
1014,404	47,38
1014,777	46,62
1015,151	48,08
1015,524	47,74
1015,897	47,36
1016,271	47,36
1016,644	47,15
1017,017	47,1
1017,39	47,17
1017,763	47,43
1018,136	47,26
1018,508	47,32
1018,881	46,65
1019,254	46,82
1019,626	46,95
1019,999	46,79
1020,371	47,22
1020,743	47,95
1021,116	47,5
1021,488	48,47
1021,86	48,63
1022,232	48,44
1022,604	48,07
1022,975	48,44
1023,347	46,98
1023,719	48,64
1024,09	48,38
1024,462	47,24
1024,833	49,01
1025,204	48,88
1025,576	48,02
1025,947	48
1026,318	47,86
1026,689	48,86
1027,06	48,13
1027,431	49,03
1027,801	48,77
1028,172	47,32
1028,543	48,71
1028,913	49,56
1029,284	48,31
1029,654	48,71
1030,024	48,65
1030,394	48,44
1030,764	48,6
1031,135	49,54
1031,504	49,07
1031,874	48,39
1032,244	47,68
1032,614	47,54
1032,983	48,57
1033,353	47,91
1033,722	48,86
1034,092	49,1
1034,461	48,66
1034,83	48,4
1035,2	49,45
1035,569	49,15
1035,938	48,75
1036,307	49,23
1036,675	48,8
1037,044	50,17
1037,413	49,57
1037,781	49,7
1038,15	50,56
1038,518	49,52
1038,887	49,76
1039,255	49,12
1039,623	49,05
1039,991	49,47
1040,359	48,72
1040,727	49,21
1041,095	50,08
1041,463	49,34
1041,831	50,21
1042,198	48,26
1042,566	50,37
1042,933	49,8
1043,301	49
1043,668	49,89
1044,035	48,67
1044,402	50,02
1044,77	49,11
1045,137	49,14
1045,503	49,36
1045,87	50,52
1046,237	49,15
1046,604	50,14
1046,97	49,13
1047,337	52,37
1047,703	49,8
1048,07	51,11
1048,436	51,26
1048,802	51,06
1049,168	51,37
1049,534	51,66
1049,9	51,71
1050,266	50,84
1050,632	50,94
1050,998	51,65
1051,364	51,61
1051,729	51,33
1052,095	50,43
1052,46	50,18
1052,825	51,18
1053,191	50,72
1053,556	50,22
1053,921	50,27
1054,286	50,99
1054,651	51,33
1055,016	52,95
1055,381	51,65
1055,745	50,29
1056,11	50,85
1056,475	53,35
1056,839	51,45
1057,203	51,8
1057,568	51,65
1057,932	52,17
1058,296	52,85
1058,66	51,76
1059,024	52,46
1059,388	51,99
1059,752	52,3
1060,116	52,59
1060,48	53,98
1060,843	50,94
1061,207	51,72
1061,57	52,69
1061,934	53,48
1062,297	52,35
1062,66	53,1
1063,023	52,04
1063,386	53,77
1063,749	53,32
1064,112	52,69
1064,475	52,83
1064,838	52,08
1065,201	54,07
1065,563	53,69
1065,926	52,51
1066,288	52,71
1066,651	53,02
1067,013	52,84
1067,375	53,15
1067,737	54,56
1068,099	52,83
1068,461	54,38
1068,823	51,53
1069,185	53,98
1069,547	54,02
1069,909	52
1070,27	54,17
1070,632	51,35
1070,993	52,2
1071,355	53,32
1071,716	52,86
1072,077	53,49
1072,438	55,12
1072,799	54,13
1073,16	54,65
1073,521	52,06
1073,882	56,6
1074,243	55,44
1074,603	54,11
1074,964	52,74
1075,325	53,14
1075,685	51,32
1076,045	52,56
1076,406	53,1
1076,766	54,9
1077,126	53,63
1077,486	54
1077,846	53,54
1078,206	53,9
1078,566	53,71
1078,925	54,6
1079,285	54,42
1079,645	53,98
1080,004	53,25
1080,364	53,19
1080,723	53,45
1081,082	56,4
1081,442	54,5
1081,801	54,2
1082,16	54,97
1082,519	54,78
1082,878	56,46
1083,237	54,25
1083,595	56,26
1083,954	53,15
1084,313	54,56
1084,671	55,81
1085,03	55,67
1085,388	56,14
1085,746	55,3
1086,104	53,81
1086,463	55,5
1086,821	55,84
1087,179	54,94
1087,537	56,5
1087,894	57,13
1088,252	54,86
1088,61	54,23
1088,967	56,92
1089,325	56,69
1089,682	57,74
1090,04	56,39
1090,397	57,03
1090,754	57,49
1091,111	53,8
1091,469	58,8
1091,826	56,98
1092,182	59,13
1092,539	58,25
1092,896	58,04
1093,253	57,38
1093,609	58,09
1093,966	57,58
1094,322	57,42
1094,679	55,54
1095,035	57,63
1095,391	55,76
1095,748	57,58
1096,104	56,78
1096,46	59,72
1096,816	57,4
1097,171	55,64
1097,527	58,15
1097,883	60,64
1098,239	57,06
1098,594	56,49
1098,95	58,6
1099,305	60,81
1099,66	58,35
1100,016	56,94
1100,371	60,16
1100,726	56,74
1101,081	58,04
1101,436	57,68
1101,791	60,28
1102,146	58,14
1102,5	63,59
1102,855	56,67
1103,21	59,48
1103,564	59,65
1103,918	59,26
1104,273	61,15
1104,627	58,6
1104,981	56,71
1105,335	59,1
1105,69	65,75
1106,043	60,65
1106,397	59,6
1106,751	62,28
1107,105	59,99
1107,459	60,18
1107,812	63,32
1108,166	61,56
1108,519	63,26
1108,873	63,02
1109,226	64,99
1109,579	63,04
1109,932	67,91
1110,285	67,42
1110,638	68,02
1110,991	65,04
1111,344	60,29
1111,697	62,46
1112,05	62,93
1112,402	64,5
1112,755	61,76
1113,107	69,09
1113,46	66,43
1113,812	69,01
1114,164	72,64
1114,517	68,66
1114,869	167,59
1115,221	185,96
1115,573	172,73
1115,924	189,62
