Data from D1__Relative__6__00045.txt Node

Date: Tue Jan 30 17:54:56 CET 2024
User: diatiterra
Spectrometer: HDX00911
Trigger mode: 0
Integration Time (sec): 6,000000E-3
Scans to average: 3
Nonlinearity correction enabled: true
Boxcar width: 0
Storing dark spectrum: false
XAxis mode: Wavelengths
Number of Pixels in Spectrum: 2068
>>>>>Begin Spectral Data<<<<<
194,468	83,81
195,025	66,27
195,581	76,07
196,138	64,04
196,694	70,36
197,251	57,51
197,807	54,83
198,363	51,78
198,919	53,48
199,474	58,1
200,03	51,99
200,586	53,33
201,141	50,8
201,696	48,22
202,251	49,89
202,806	52,54
203,361	53,27
203,916	47,98
204,471	50,51
205,025	53,84
205,58	54,74
206,134	53,8
206,688	55,41
207,242	51,07
207,796	57,51
208,35	47,49
208,904	56,23
209,457	55,59
210,011	55,27
210,564	50,29
211,117	60,24
211,67	61,85
212,223	58,53
212,776	52,94
213,329	56,65
213,881	57,65
214,434	57,36
214,986	53,96
215,538	56,29
216,09	55,57
216,642	56,37
217,194	52,67
217,746	55,65
218,297	55,37
218,849	60,94
219,4	54,97
219,951	55,99
220,502	60,2
221,053	53,41
221,604	53,91
222,155	57,49
222,705	55,92
223,256	48,06
223,806	53,19
224,356	55,85
224,906	56,68
225,456	52,57
226,006	53,99
226,556	52,72
227,106	56,62
227,655	49,06
228,204	53,67
228,754	61,5
229,303	50,8
229,852	53,7
230,401	52,5
230,949	54,96
231,498	49,03
232,047	47,94
232,595	54,39
233,143	50
233,691	52,08
234,239	54,03
234,787	52,76
235,335	54,05
235,883	49,34
236,43	55,69
236,978	55,28
237,525	51,12
238,072	53,13
238,619	52,17
239,166	49,49
239,713	49,48
240,26	51,6
240,806	51,22
241,353	55,81
241,899	51,75
242,445	49,47
242,991	49,69
243,537	52,43
244,083	48,67
244,629	58,58
245,174	47,25
245,72	52,02
246,265	54,89
246,81	55,19
247,355	52,26
247,9	52,2
248,445	55,15
248,99	52,39
249,534	55,36
250,079	50,44
250,623	49,89
251,168	49,79
251,712	50,74
252,256	47,1
252,8	55,41
253,343	52
253,887	49,99
254,43	52,09
254,974	49,78
255,517	51,68
256,06	54,65
256,603	55,86
257,146	52,72
257,689	52,63
258,232	52,16
258,774	52,79
259,317	51,77
259,859	47,78
260,401	54,82
260,943	49,79
261,485	53,74
262,027	49,11
262,569	60,28
263,11	52,56
263,652	56,13
264,193	53,1
264,734	48,83
265,275	45,91
265,816	46,83
266,357	51,04
266,898	49,57
267,438	54,71
267,979	58,06
268,519	54,41
269,059	51,42
269,6	48,67
270,14	51,94
270,68	48,78
271,219	53,54
271,759	53,29
272,298	42,11
272,838	49,46
273,377	53,84
273,916	43,9
274,455	47,08
274,994	51,22
275,533	50,44
276,072	55,71
276,61	50,68
277,149	45,01
277,687	50,22
278,225	54,16
278,763	51,46
279,301	56,01
279,839	52,27
280,377	53,15
280,914	51,06
281,452	56,86
281,989	55,65
282,526	47,04
283,064	56,99
283,601	45,14
284,137	52,23
284,674	52,53
285,211	54,76
285,747	55,89
286,284	56,63
286,82	47,55
287,356	51,98
287,892	55,94
288,428	46,25
288,964	52,28
289,5	48,92
290,035	50,45
290,571	49,15
291,106	53,23
291,641	55,44
292,176	51,56
292,711	49,67
293,246	50,85
293,781	50,34
294,315	47,04
294,85	54,62
295,384	57,52
295,918	47,88
296,453	51,2
296,987	50,11
297,52	52,32
298,054	51,1
298,588	50,71
299,121	53,17
299,655	47,64
300,188	44,76
300,721	53,52
301,254	54,71
301,787	47,88
302,32	55,31
302,853	49,46
303,385	52
303,918	53,36
304,45	46
304,982	51,14
305,514	52,81
306,046	45,89
306,578	51,51
307,11	51,44
307,641	55,21
308,173	50,72
308,704	53,82
309,236	53,6
309,767	50,85
310,298	51,62
310,829	47,31
311,359	53,11
311,89	50,34
312,421	48,32
312,951	48,46
313,481	52,53
314,012	49,47
314,542	47,05
315,072	53,73
315,601	50,63
316,131	54,49
316,661	51,86
317,19	50,73
317,72	51,14
318,249	46,91
318,778	51,08
319,307	47,98
319,836	53,92
320,365	46,5
320,893	53,41
321,422	50,43
321,95	42,25
322,479	54,67
323,007	46,58
323,535	47,75
324,063	46,43
324,591	48,41
325,118	52,91
325,646	49,23
326,173	46,05
326,701	49,68
327,228	50,22
327,755	51,22
328,282	43,16
328,809	44,52
329,336	49,1
329,862	46,96
330,389	44,94
330,915	47,67
331,441	47,57
331,968	48,82
332,494	49,69
333,02	45,81
333,545	48,6
334,071	44,89
334,597	44,46
335,122	47,7
335,648	45,62
336,173	49,37
336,698	40,65
337,223	45,69
337,748	44,93
338,272	45,44
338,797	46,67
339,322	51,2
339,846	42,09
340,37	44,62
340,894	46,15
341,419	44,05
341,942	41,59
342,466	42,79
342,99	45,51
343,514	42,53
344,037	40,51
344,56	45,54
345,084	40,02
345,607	40,39
346,13	41,88
346,653	39,43
347,175	42,38
347,698	43,25
348,221	37,13
348,743	38,03
349,265	35,9
349,787	42,23
350,309	44,44
350,831	43,76
351,353	36,67
351,875	37,14
352,397	34,49
352,918	38,71
353,439	39,08
353,961	35,92
354,482	37,41
355,003	36,01
355,524	35,44
356,044	33,31
356,565	33,04
357,086	38,49
357,606	35,17
358,126	36,67
358,646	37,07
359,167	36,1
359,687	36,06
360,206	32,89
360,726	38,39
361,246	33,5
361,765	35,78
362,285	35,33
362,804	32,58
363,323	32,97
363,842	36,95
364,361	35,23
364,88	31,08
365,398	35,84
365,917	32,57
366,435	31,39
366,954	32,49
367,472	33,38
367,99	33,12
368,508	30,62
369,026	32,39
369,544	34,07
370,061	31,86
370,579	31,6
371,096	29,37
371,613	31,59
372,131	30,98
372,648	30,06
373,165	29,72
373,681	31,03
374,198	32,12
374,715	27,34
375,231	32,45
375,747	29,65
376,264	27,54
376,78	27,56
377,296	28,68
377,812	29,12
378,327	27,94
378,843	26,53
379,359	29,06
379,874	30,09
380,389	28,69
380,905	26,01
381,42	28,56
381,935	27,54
382,449	25,4
382,964	26,72
383,479	25,86
383,993	23,78
384,508	24,39
385,022	25,37
385,536	24,43
386,05	26,14
386,564	24,72
387,078	22,99
387,592	23,92
388,105	21,33
388,619	21,62
389,132	21,89
389,645	21,63
390,158	20,46
390,671	21,61
391,184	19,95
391,697	20,32
392,21	21,02
392,722	20,25
393,235	19,91
393,747	19,96
394,259	18,54
394,771	20,15
395,283	18,24
395,795	20,15
396,307	19,78
396,818	18,03
397,33	19,63
397,841	17,98
398,353	17,78
398,864	18,41
399,375	17,48
399,886	17,53
400,397	15,62
400,907	16,61
401,418	15,1
401,928	15,51
402,439	15,7
402,949	15,09
403,459	14,38
403,969	14,46
404,479	13,98
404,989	12,78
405,498	13,7
406,008	12,98
406,517	12,55
407,027	12
407,536	11,09
408,045	10,55
408,554	10,38
409,063	10,29
409,572	10,44
410,08	10,03
410,589	9,84
411,097	9,72
411,606	9,06
412,114	8,61
412,622	8,84
413,13	8,34
413,638	8,59
414,145	7,32
414,653	7,19
415,16	7
415,668	7,25
416,175	7,35
416,682	6,55
417,189	6,79
417,696	6,77
418,203	6,22
418,71	6,76
419,216	6,2
419,723	6,12
420,229	6,2
420,735	5,79
421,242	6,09
421,748	5,74
422,254	5,75
422,759	5,75
423,265	5,74
423,771	4,96
424,276	5,79
424,781	5,41
425,287	5,29
425,792	5,47
426,297	5,33
426,802	5,14
427,306	5,4
427,811	5,14
428,316	5,2
428,82	5,26
429,324	4,95
429,829	4,87
430,333	5,04
430,837	4,92
431,34	4,6
431,844	5,02
432,348	4,8
432,851	4,49
433,355	4,88
433,858	4,68
434,361	4,41
434,864	4,63
435,367	4,3
435,87	4,65
436,373	4,66
436,876	4,44
437,378	4,63
437,88	4,48
438,383	4,39
438,885	4,66
439,387	4,59
439,889	4,55
440,391	4,35
440,892	4,38
441,394	4,52
441,896	4,59
442,397	4,66
442,898	4,28
443,399	4,59
443,9	4,27
444,401	4,65
444,902	4,28
445,403	4,22
445,903	4,1
446,404	4,27
446,904	4,43
447,405	4,62
447,905	4,2
448,405	4,74
448,905	4,62
449,404	4,46
449,904	4,33
450,404	4,52
450,903	4,55
451,403	4,6
451,902	4,57
452,401	4,46
452,9	4,61
453,399	4,56
453,898	4,96
454,396	4,63
454,895	4,75
455,393	4,75
455,892	4,73
456,39	4,87
456,888	4,58
457,386	4,8
457,884	4,75
458,382	4,66
458,879	4,68
459,377	4,77
459,874	4,73
460,372	4,76
460,869	4,78
461,366	4,55
461,863	4,8
462,36	4,59
462,857	4,68
463,353	4,74
463,85	4,8
464,346	4,63
464,843	4,71
465,339	4,77
465,835	4,56
466,331	4,85
466,827	4,6
467,323	4,57
467,818	4,59
468,314	4,7
468,809	4,62
469,305	4,56
469,8	4,66
470,295	4,68
470,79	4,67
471,285	4,51
471,78	4,58
472,274	4,49
472,769	4,56
473,263	4,52
473,758	4,6
474,252	4,51
474,746	4,51
475,24	4,55
475,734	4,62
476,228	4,71
476,721	4,6
477,215	4,66
477,708	4,63
478,202	4,79
478,695	4,55
479,188	4,88
479,681	4,63
480,174	4,7
480,667	4,74
481,159	4,71
481,652	4,82
482,144	4,56
482,637	4,62
483,129	4,54
483,621	4,64
484,113	4,83
484,605	4,79
485,097	4,92
485,588	4,79
486,08	4,64
486,571	4,83
487,063	4,73
487,554	4,83
488,045	4,78
488,536	4,93
489,027	4,69
489,518	4,86
490,008	5,02
490,499	4,85
490,989	4,98
491,48	5
491,97	5
492,46	5,06
492,95	4,98
493,44	5,24
493,93	5,21
494,419	5,17
494,909	5,36
495,398	5,3
495,888	5,39
496,377	5,62
496,866	5,38
497,355	5,57
497,844	5,66
498,333	5,69
498,821	5,69
499,31	5,82
499,798	5,9
500,287	5,98
500,775	5,97
501,263	6,27
501,751	6,36
502,239	6,62
502,727	6,66
503,215	6,59
503,702	6,7
504,19	6,93
504,677	6,94
505,164	7,18
505,651	7,39
506,139	7,46
506,625	7,6
507,112	7,78
507,599	8,03
508,086	8,04
508,572	8,21
509,058	8,48
509,545	8,38
510,031	8,82
510,517	8,99
511,003	9
511,489	9,45
511,974	9,66
512,46	9,99
512,946	9,89
513,431	10,26
513,916	10,43
514,401	10,59
514,887	11,06
515,371	11,39
515,856	11,49
516,341	11,65
516,826	12
517,31	12,21
517,795	12,37
518,279	12,87
518,763	13,01
519,247	13,42
519,731	13,6
520,215	13,8
520,699	13,98
521,182	14,68
521,666	15,06
522,149	15,32
522,633	15,65
523,116	15,53
523,599	15,96
524,082	16,23
524,565	16,57
525,048	16,86
525,53	16,91
526,013	17,29
526,495	17,52
526,978	17,77
527,46	17,75
527,942	18,25
528,424	18,29
528,906	18,61
529,388	18,71
529,87	19,08
530,351	18,93
530,833	19,36
531,314	19,33
531,795	19,43
532,277	19,67
532,758	20,2
533,238	20,21
533,719	20,3
534,2	20,19
534,681	20,25
535,161	20,51
535,642	20,85
536,122	20,7
536,602	20,67
537,082	20,86
537,562	20,78
538,042	20,8
538,522	20,63
539,001	20,86
539,481	21,19
539,96	21,15
540,44	21,25
540,919	21,02
541,398	21,26
541,877	21,41
542,356	21,36
542,835	21,52
543,313	21,34
543,792	21,66
544,27	21,78
544,749	21,55
545,227	21,74
545,705	21,97
546,183	21,7
546,661	21,83
547,139	21,8
547,616	21,91
548,094	21,67
548,571	21,95
549,049	21,8
549,526	21,72
550,003	22,08
550,48	21,89
550,957	22,29
551,434	22,16
551,911	21,98
552,387	22,19
552,864	22,24
553,34	21,82
553,817	21,96
554,293	21,75
554,769	22,44
555,245	22,12
555,721	22,11
556,197	22,01
556,672	21,89
557,148	22,23
557,623	21,92
558,099	22,02
558,574	21,74
559,049	22,08
559,524	21,77
559,999	21,84
560,474	21,59
560,948	21,72
561,423	21,64
561,897	21,47
562,372	21,24
562,846	21,21
563,32	21,24
563,794	20,95
564,268	20,76
564,742	20,89
565,216	20,49
565,69	20,66
566,163	20,5
566,636	20,25
567,11	20,27
567,583	19,94
568,056	19,91
568,529	20,07
569,002	19,58
569,475	19,55
569,947	19,2
570,42	19,05
570,892	18,98
571,365	18,64
571,837	18,94
572,309	18,63
572,781	18,38
573,253	18,23
573,725	17,95
574,197	17,67
574,668	17,86
575,14	17,79
575,611	17,27
576,082	17,33
576,554	17,25
577,025	17,1
577,496	16,83
577,967	17,03
578,437	16,88
578,908	16,56
579,379	16,36
579,849	16,42
580,319	16,29
580,79	16,21
581,26	16
581,73	16,01
582,2	15,86
582,669	15,6
583,139	15,43
583,609	15,56
584,078	15,43
584,548	15,41
585,017	15,3
585,486	15,21
585,955	15,01
586,424	15,02
586,893	14,95
587,362	14,95
587,83	14,68
588,299	14,72
588,767	14,56
589,236	14,59
589,704	14,38
590,172	14,5
590,64	14,23
591,108	14,25
591,576	14,11
592,043	14,22
592,511	14,01
592,978	14,06
593,446	14,1
593,913	13,96
594,38	13,95
594,847	13,96
595,314	13,84
595,781	13,89
596,248	13,8
596,715	13,71
597,181	13,82
597,647	13,79
598,114	13,65
598,58	13,64
599,046	13,71
599,512	13,42
599,978	13,45
600,444	13,42
600,91	13,37
601,375	13,44
601,841	13,48
602,306	13,29
602,771	13,17
603,236	13,17
603,702	13,13
604,167	12,98
604,631	13,14
605,096	12,86
605,561	12,98
606,025	12,91
606,49	12,76
606,954	12,8
607,418	12,81
607,882	12,65
608,347	12,55
608,81	12,56
609,274	12,3
609,738	12,26
610,202	12,25
610,665	12,14
611,128	12,14
611,592	11,96
612,055	12,12
612,518	11,86
612,981	11,73
613,444	11,67
613,907	11,55
614,369	11,5
614,832	11,53
615,294	11,38
615,757	11,29
616,219	11,21
616,681	11,08
617,143	11,06
617,605	10,97
618,067	10,96
618,529	10,83
618,99	10,77
619,452	10,76
619,913	10,76
620,375	10,59
620,836	10,57
621,297	10,55
621,758	10,47
622,219	10,38
622,68	10,49
623,14	10,5
623,601	10,33
624,061	10,28
624,522	10,28
624,982	10,23
625,442	10,21
625,902	10,19
626,362	10,11
626,822	10,26
627,282	10,2
627,742	10,22
628,201	10,05
628,661	10,03
629,12	10,07
629,579	10,04
630,038	10,15
630,497	10,03
630,956	9,98
631,415	9,88
631,874	9,88
632,332	10,02
632,791	10,02
633,249	9,78
633,708	9,85
634,166	9,86
634,624	9,72
635,082	9,59
635,54	9,6
635,998	9,56
636,455	9,52
636,913	9,3
637,37	9,35
637,828	9,17
638,285	9,14
638,742	9,08
639,199	8,93
639,656	8,84
640,113	8,69
640,57	8,62
641,027	8,51
641,483	8,48
641,94	8,3
642,396	8,16
642,852	8,08
643,309	7,9
643,765	7,83
644,221	7,8
644,676	7,64
645,132	7,6
645,588	7,42
646,043	7,33
646,499	7,3
646,954	7,15
647,409	7,02
647,864	6,86
648,319	6,93
648,774	6,78
649,229	6,68
649,684	6,63
650,139	6,59
650,593	6,52
651,047	6,5
651,502	6,42
651,956	6,45
652,41	6,36
652,864	6,32
653,318	6,3
653,772	6,23
654,225	6,24
654,679	6,12
655,133	6,18
655,586	6,14
656,039	6,1
656,492	5,98
656,946	6
657,399	5,95
657,851	5,82
658,304	5,82
658,757	5,69
659,209	5,65
659,662	5,58
660,114	5,53
660,567	5,46
661,019	5,39
661,471	5,37
661,923	5,27
662,375	5,19
662,826	5,19
663,278	5,07
663,73	5,03
664,181	5,04
664,632	4,95
665,084	4,88
665,535	4,85
665,986	4,87
666,437	4,79
666,888	4,74
667,338	4,75
667,789	4,8
668,24	4,73
668,69	4,77
669,14	4,77
669,591	4,73
670,041	4,79
670,491	4,7
670,941	4,71
671,391	4,79
671,84	4,81
672,29	4,82
672,74	4,83
673,189	4,95
673,638	4,88
674,088	4,98
674,537	5,02
674,986	5,1
675,435	5,14
675,883	5,23
676,332	5,25
676,781	5,31
677,229	5,41
677,678	5,47
678,126	5,47
678,574	5,58
679,022	5,68
679,47	5,72
679,918	5,9
680,366	5,85
680,814	6,01
681,261	6,09
681,709	6,22
682,156	6,38
682,604	6,46
683,051	6,46
683,498	6,57
683,945	6,71
684,392	6,81
684,839	6,92
685,286	7,03
685,732	7,17
686,179	7,36
686,625	7,42
687,071	7,62
687,518	7,8
687,964	8,02
688,41	8,24
688,856	8,43
689,301	8,77
689,747	8,96
690,193	9,3
690,638	9,61
691,084	9,96
691,529	10,36
691,974	10,79
692,419	11,04
692,864	11,58
693,309	12,1
693,754	12,47
694,199	12,95
694,643	13,47
695,088	14,02
695,532	14,45
695,977	14,93
696,421	15,5
696,865	16,09
697,309	16,61
697,753	17,11
698,197	17,63
698,64	18,17
699,084	18,64
699,527	19,17
699,971	19,65
700,414	20,09
700,857	20,67
701,3	21,18
701,743	21,59
702,186	22,14
702,629	22,61
703,072	23,26
703,515	23,66
703,957	24,01
704,399	24,49
704,842	24,92
705,284	25,29
705,726	25,72
706,168	26,18
706,61	26,78
707,052	27,13
707,494	27,37
707,935	27,87
708,377	28,34
708,818	28,53
709,26	28,96
709,701	29,42
710,142	29,62
710,583	30,18
711,024	30,43
711,465	30,96
711,905	31,16
712,346	31,5
712,787	31,79
713,227	32,27
713,667	32,51
714,108	32,84
714,548	33,04
714,988	33,38
715,428	33,73
715,868	34,15
716,307	34,03
716,747	34,76
717,186	35,06
717,626	35,11
718,065	35,62
718,504	35,68
718,944	36,21
719,383	36,33
719,822	36,61
720,261	36,68
720,699	36,87
721,138	37,29
721,576	37,72
722,015	37,78
722,453	38,17
722,892	38,16
723,33	38,38
723,768	38,81
724,206	38,93
724,644	38,98
725,081	39,3
725,519	39,26
725,957	39,49
726,394	39,73
726,832	39,83
727,269	40,32
727,706	40,18
728,143	40,37
728,58	40,68
729,017	40,75
729,454	40,97
729,89	40,93
730,327	40,96
730,764	41,28
731,2	41,05
731,636	41,41
732,072	41,61
732,509	41,74
732,945	41,69
733,38	41,89
733,816	41,95
734,252	41,82
734,688	41,84
735,123	42,06
735,559	42,28
735,994	42,29
736,429	42,23
736,864	42,37
737,299	42,08
737,734	42,46
738,169	42,56
738,604	42,7
739,038	42,73
739,473	42,8
739,907	42,73
740,342	42,69
740,776	42,68
741,21	42,97
741,644	42,79
742,078	43,09
742,512	43,05
742,946	43,14
743,379	43
743,813	43,13
744,246	42,96
744,68	43,12
745,113	43,03
745,546	43,11
745,979	43,21
746,412	43,08
746,845	42,91
747,278	43,02
747,711	42,84
748,143	42,96
748,576	43,02
749,008	42,98
749,441	43,13
749,873	42,9
750,305	43,08
750,737	43,18
751,169	42,8
751,601	43,06
752,032	42,95
752,464	43,15
752,896	43,09
753,327	42,86
753,758	42,85
754,19	42,83
754,621	43,24
755,052	42,76
755,483	42,69
755,914	42,8
756,344	42,77
756,775	42,9
757,206	43,03
757,636	42,85
758,066	42,7
758,497	42,78
758,927	42,66
759,357	42,86
759,787	42,67
760,217	42,48
760,647	42,61
761,076	42,7
761,506	42,64
761,935	42,35
762,365	42,68
762,794	42,77
763,223	42,41
763,653	42,57
764,082	42,67
764,51	42,73
764,939	42,51
765,368	42,47
765,797	42,63
766,225	42,55
766,654	42,23
767,082	42,28
767,51	42,32
767,938	42,26
768,367	42,22
768,795	42,24
769,222	42,35
769,65	42,44
770,078	42,37
770,505	41,99
770,933	42,2
771,36	42,28
771,788	42,17
772,215	42,33
772,642	42,02
773,069	42,15
773,496	42,17
773,923	42,08
774,349	41,95
774,776	42,2
775,203	42,04
775,629	41,93
776,055	42,09
776,482	42,06
776,908	42
777,334	42,06
777,76	41,97
778,186	41,92
778,611	42,1
779,037	41,9
779,463	42,07
779,888	41,95
780,314	41,86
780,739	41,97
781,164	42,06
781,589	41,82
782,014	41,72
782,439	41,79
782,864	41,99
783,289	41,9
783,713	41,84
784,138	41,93
784,562	41,94
784,987	41,75
785,411	41,91
785,835	41,86
786,259	41,81
786,683	41,96
787,107	41,9
787,531	41,72
787,954	41,54
788,378	42,06
788,802	41,88
789,225	41,75
789,648	41,89
790,071	41,89
790,495	41,46
790,918	41,75
791,34	41,74
791,763	41,88
792,186	41,92
792,609	41,82
793,031	41,75
793,454	41,7
793,876	41,85
794,298	41,67
794,721	41,77
795,143	42,06
795,565	41,78
795,986	41,91
796,408	41,59
796,83	41,74
797,252	41,85
797,673	41,78
798,094	41,64
798,516	41,63
798,937	41,8
799,358	41,88
799,779	41,62
800,2	41,83
800,621	41,61
801,042	41,73
801,462	41,69
801,883	41,81
802,303	41,79
802,724	41,58
803,144	41,83
803,564	41,58
803,984	41,84
804,404	41,52
804,824	41,88
805,244	41,83
805,664	41,7
806,084	41,66
806,503	41,87
806,923	41,67
807,342	41,63
807,761	41,48
808,18	41,76
808,599	41,7
809,018	41,73
809,437	41,37
809,856	41,55
810,275	41,59
810,693	41,77
811,112	41,85
811,53	41,55
811,949	41,89
812,367	41,39
812,785	41,6
813,203	41,77
813,621	41,73
814,039	41,61
814,457	41,61
814,874	41,88
815,292	41,57
815,709	41,62
816,127	41,66
816,544	41,68
816,961	41,89
817,378	41,93
817,795	41,59
818,212	41,52
818,629	41,6
819,046	41,43
819,462	41,64
819,879	41,74
820,295	41,5
820,712	41,44
821,128	41,55
821,544	41,47
821,96	41,6
822,376	41,5
822,792	41,55
823,208	41,42
823,624	41,71
824,039	41,55
824,455	41,58
824,87	41,44
825,286	41,22
825,701	41,49
826,116	41,37
826,531	41,4
826,946	41,49
827,361	41,48
827,776	41,48
828,19	41,34
828,605	41,58
829,02	41,5
829,434	41,4
829,848	41,76
830,263	41,62
830,677	41,55
831,091	41,4
831,505	41,51
831,919	41,24
832,332	41,4
832,746	41,38
833,16	41,49
833,573	41,43
833,987	41,58
834,4	41,28
834,813	41,58
835,226	41,42
835,639	41,29
836,052	41,53
836,465	41,59
836,878	41,39
837,29	41,32
837,703	41,4
838,116	41,59
838,528	41,43
838,94	41,42
839,352	41,39
839,765	41,53
840,177	41,47
840,589	41,24
841	41,42
841,412	41,4
841,824	41,23
842,235	41,1
842,647	41,47
843,058	41,4
843,47	41,56
843,881	41,41
844,292	41,43
844,703	41,35
845,114	41,5
845,525	41,48
845,935	41,48
846,346	41,1
846,757	41,46
847,167	41,32
847,577	41,64
847,988	41,16
848,398	41,21
848,808	41,36
849,218	41,24
849,628	41,38
850,038	41,48
850,448	41,29
850,857	41,26
851,267	41,4
851,676	41,31
852,086	41,32
852,495	41,37
852,904	41,21
853,313	41,25
853,722	41,43
854,131	41,41
854,54	41,38
854,949	41,35
855,357	41,32
855,766	41,14
856,174	41,25
856,583	41,36
856,991	41,12
857,399	41,37
857,807	41,4
858,215	41,1
858,623	41,22
859,031	41,35
859,439	41,47
859,846	41,45
860,254	41,32
860,661	41,14
861,069	41,37
861,476	41,53
861,883	41,3
862,29	41,22
862,697	41,31
863,104	41,11
863,511	41,37
863,918	41,37
864,325	41,35
864,731	41
865,138	41,46
865,544	41,31
865,95	41,26
866,357	41,21
866,763	41,47
867,169	41,1
867,575	41,23
867,98	41,41
868,386	41,59
868,792	41,29
869,197	41,65
869,603	41,06
870,008	41,32
870,414	41,19
870,819	41,27
871,224	41,29
871,629	41,37
872,034	41,29
872,439	41,38
872,844	41,06
873,248	41,26
873,653	41,22
874,057	41,28
874,462	41,14
874,866	41,24
875,27	41,27
875,674	41,46
876,078	41,25
876,482	41,4
876,886	41,29
877,29	41,31
877,694	41,18
878,097	41,07
878,501	41,17
878,904	41,25
879,308	41,07
879,711	41,28
880,114	41,26
880,517	40,95
880,92	41,36
881,323	41,34
881,726	41,46
882,128	41,03
882,531	41,24
882,934	41,14
883,336	41,08
883,738	41,38
884,141	41,31
884,543	41,31
884,945	41,2
885,347	41,25
885,749	41,08
886,151	41,03
886,552	41,01
886,954	40,89
887,355	41,27
887,757	41,07
888,158	41,17
888,56	41,44
888,961	41,19
889,362	41,15
889,763	41,06
890,164	41,31
890,565	41,14
890,965	41,52
891,366	41,57
891,767	41,24
892,167	41,13
892,567	41,09
892,968	41,19
893,368	41,27
893,768	41,14
894,168	41,06
894,568	41,31
894,968	41,16
895,368	41,18
895,767	41,2
896,167	41,39
896,566	41,28
896,966	41,24
897,365	41,36
897,764	41,09
898,164	41,3
898,563	41,45
898,962	41,3
899,361	41,33
899,759	41,23
900,158	41,1
900,557	41,26
900,955	41,16
901,354	41,11
901,752	41,11
902,15	41,12
902,548	41,02
902,947	40,96
903,345	41,17
903,742	41,27
904,14	41,12
904,538	41,35
904,936	41,16
905,333	41,26
905,731	41,17
906,128	40,92
906,525	41,16
906,923	41,12
907,32	41,1
907,717	41,1
908,114	41,21
908,511	41,02
908,907	41,31
909,304	41,05
909,701	41,05
910,097	40,93
910,494	41,31
910,89	40,94
911,286	41,14
911,682	41,37
912,078	41,3
912,474	41,32
912,87	41,31
913,266	41,11
913,662	41,06
914,058	41,24
914,453	41,31
914,849	41,15
915,244	41,1
915,639	41,3
916,034	41,13
916,43	41,09
916,825	41,32
917,22	41,3
917,614	40,94
918,009	40,95
918,404	41,05
918,798	41,09
919,193	40,81
919,587	40,99
919,982	41,05
920,376	41,01
920,77	41,18
921,164	40,9
921,558	41,27
921,952	40,94
922,346	40,91
922,74	41,2
923,133	40,92
923,527	40,82
923,92	40,91
924,314	41,16
924,707	40,93
925,1	40,85
925,493	41,05
925,886	40,89
926,279	40,99
926,672	40,88
927,065	40,87
927,457	40,96
927,85	40,83
928,243	41,07
928,635	40,91
929,027	40,76
929,42	40,77
929,812	40,88
930,204	40,73
930,596	40,55
930,988	41,03
931,379	40,77
931,771	40,99
932,163	41,06
932,554	40,84
932,946	40,73
933,337	40,72
933,729	40,61
934,12	40,76
934,511	40,88
934,902	40,77
935,293	40,87
935,684	40,61
936,075	40,79
936,465	40,71
936,856	40,17
937,246	40,31
937,637	40,47
938,027	41,2
938,417	40,59
938,808	40,68
939,198	40,48
939,588	40,52
939,978	40,74
940,368	40,38
940,757	40,46
941,147	40,6
941,537	40,87
941,926	40,4
942,315	40,17
942,705	40,39
943,094	40,68
943,483	40,58
943,872	40,59
944,261	40,66
944,65	40,2
945,039	40,43
945,428	39,8
945,816	40,43
946,205	39,97
946,593	40,42
946,982	40,74
947,37	40,32
947,758	40,03
948,146	39,72
948,534	39,96
948,922	40,21
949,31	39,97
949,698	40,07
950,086	39,92
950,473	40,37
950,861	40,11
951,248	40,1
951,636	39,78
952,023	39,68
952,41	40,77
952,797	39,98
953,184	39,97
953,571	39,89
953,958	39,78
954,345	40,13
954,731	40
955,118	39,72
955,505	39,91
955,891	40,14
956,277	39,57
956,664	39,36
957,05	39,51
957,436	39,65
957,822	39,93
958,208	39,78
958,594	39,85
958,979	39,33
959,365	39,22
959,751	39,77
960,136	39,77
960,522	39,5
960,907	39,55
961,292	39,48
961,677	39,45
962,062	39,33
962,447	39,27
962,832	39,5
963,217	39,66
963,602	39,52
963,986	39,48
964,371	39,39
964,756	39,76
965,14	39,55
965,524	39,58
965,908	39,72
966,293	39,26
966,677	39,39
967,061	39,71
967,445	39,3
967,828	39,63
968,212	39,22
968,596	39,59
968,979	39,48
969,363	39,64
969,746	39,29
970,129	39,1
970,513	39,45
970,896	39,92
971,279	39,07
971,662	39,51
972,045	39,54
972,428	39,22
972,81	39,48
973,193	39,49
973,575	39,09
973,958	39,48
974,34	39,18
974,723	39,43
975,105	39,68
975,487	39,48
975,869	39,14
976,251	39,46
976,633	39,55
977,015	39,38
977,396	39,49
977,778	39,56
978,16	38,99
978,541	39,61
978,922	39,33
979,304	39,53
979,685	39,34
980,066	39,8
980,447	39,51
980,828	39,58
981,209	39,35
981,59	39,31
981,97	39,22
982,351	39,77
982,732	39,41
983,112	39,57
983,493	39,39
983,873	39,6
984,253	39,68
984,633	39,24
985,013	39,59
985,393	39,19
985,773	39,44
986,153	39,49
986,533	39,34
986,912	39,58
987,292	39,5
987,671	39,55
988,051	39,64
988,43	39,53
988,809	39,82
989,188	39,64
989,567	39,67
989,946	39,7
990,325	39,31
990,704	39,59
991,083	39,8
991,461	39,51
991,84	39,31
992,218	39,58
992,597	39,6
992,975	39,68
993,353	40,11
993,732	39,61
994,11	39,62
994,488	39,52
994,866	39,56
995,243	39,91
995,621	39,46
995,999	39,63
996,376	40,14
996,754	39,42
997,131	39,61
997,509	39,84
997,886	39,51
998,263	39,44
998,64	40,11
999,017	39,54
999,394	39,91
999,771	40,07
1000,148	39,63
1000,524	40,01
1000,901	39,64
1001,277	39,98
1001,654	40,29
1002,03	39,93
1002,406	40,34
1002,783	40
1003,159	40,31
1003,535	39,44
1003,911	39,79
1004,286	40,46
1004,662	39,25
1005,038	40,33
1005,414	39,7
1005,789	40,36
1006,164	39,51
1006,54	40
1006,915	40,03
1007,29	39,92
1007,665	39,75
1008,04	39,95
1008,415	40,08
1008,79	40,81
1009,165	40,02
1009,54	39,67
1009,914	40,65
1010,289	40,16
1010,663	40,02
1011,038	40,46
1011,412	40,28
1011,786	40,21
1012,16	40,46
1012,535	40,07
1012,909	40,17
1013,282	39,93
1013,656	40,34
1014,03	39,98
1014,404	39,88
1014,777	40,21
1015,151	40,56
1015,524	40,46
1015,897	40,57
1016,271	40,28
1016,644	40,23
1017,017	40,61
1017,39	40,37
1017,763	40,61
1018,136	40,19
1018,508	40,2
1018,881	40,07
1019,254	40,18
1019,626	40,26
1019,999	40,04
1020,371	40,31
1020,743	40,47
1021,116	40,37
1021,488	40,45
1021,86	40,39
1022,232	40,4
1022,604	40,26
1022,975	40,31
1023,347	40,87
1023,719	40,64
1024,09	40,77
1024,462	40,83
1024,833	40,23
1025,204	40,69
1025,576	40,85
1025,947	40,74
1026,318	40,63
1026,689	40,74
1027,06	40,65
1027,431	40,5
1027,801	40,91
1028,172	40,69
1028,543	40,76
1028,913	40,92
1029,284	40,74
1029,654	40,22
1030,024	41,04
1030,394	40,83
1030,764	40,83
1031,135	41,1
1031,504	40,53
1031,874	41,36
1032,244	41,04
1032,614	40,74
1032,983	40,74
1033,353	40,91
1033,722	40,71
1034,092	40,71
1034,461	40,87
1034,83	40,79
1035,2	40,75
1035,569	40,86
1035,938	40,83
1036,307	41,01
1036,675	40,86
1037,044	40,32
1037,413	40,65
1037,781	41,35
1038,15	41,03
1038,518	40,97
1038,887	40,91
1039,255	40,93
1039,623	40,33
1039,991	41,6
1040,359	41,15
1040,727	41,19
1041,095	41,48
1041,463	41
1041,831	41,35
1042,198	41,78
1042,566	41,1
1042,933	41,1
1043,301	41,67
1043,668	40,82
1044,035	41,28
1044,402	41,18
1044,77	42,02
1045,137	41,32
1045,503	41,07
1045,87	41,28
1046,237	41,6
1046,604	41,14
1046,97	41,75
1047,337	41,49
1047,703	41,37
1048,07	41,3
1048,436	41,57
1048,802	40,73
1049,168	41,49
1049,534	41,92
1049,9	41,25
1050,266	41,02
1050,632	40,73
1050,998	42,14
1051,364	41,07
1051,729	41,24
1052,095	41,23
1052,46	41,62
1052,825	41,52
1053,191	40,64
1053,556	41,66
1053,921	41,02
1054,286	41,82
1054,651	41,68
1055,016	41,19
1055,381	41,21
1055,745	41,11
1056,11	41,74
1056,475	41,3
1056,839	41,23
1057,203	41,39
1057,568	42,26
1057,932	41,9
1058,296	41,79
1058,66	42,72
1059,024	41,54
1059,388	41,39
1059,752	41,26
1060,116	41,92
1060,48	42,62
1060,843	41,33
1061,207	41,89
1061,57	43,14
1061,934	42,3
1062,297	41,79
1062,66	42,03
1063,023	41,5
1063,386	41,43
1063,749	42,24
1064,112	42,97
1064,475	42,49
1064,838	41,06
1065,201	41,71
1065,563	41,31
1065,926	41,7
1066,288	41,82
1066,651	42,39
1067,013	42,1
1067,375	42,08
1067,737	42,05
1068,099	41,57
1068,461	42,7
1068,823	41,57
1069,185	42,74
1069,547	43,1
1069,909	42,47
1070,27	42,4
1070,632	41,49
1070,993	41,41
1071,355	42,02
1071,716	41,4
1072,077	41,47
1072,438	41,95
1072,799	41,92
1073,16	42,03
1073,521	43,14
1073,882	42,1
1074,243	41,8
1074,603	43,28
1074,964	41,9
1075,325	43,17
1075,685	43,45
1076,045	43,14
1076,406	42,43
1076,766	42,08
1077,126	42,81
1077,486	41,74
1077,846	41,66
1078,206	42,49
1078,566	41,21
1078,925	42,58
1079,285	42,78
1079,645	41,49
1080,004	43,42
1080,364	43,37
1080,723	43,26
1081,082	41,93
1081,442	42,3
1081,801	42,28
1082,16	43,2
1082,519	42,48
1082,878	43
1083,237	42,52
1083,595	42,25
1083,954	42,37
1084,313	41,51
1084,671	43,87
1085,03	43,33
1085,388	43,2
1085,746	42,52
1086,104	41,65
1086,463	42,2
1086,821	42,46
1087,179	42,36
1087,537	41,38
1087,894	42,39
1088,252	43,88
1088,61	42,06
1088,967	41,92
1089,325	42,69
1089,682	43,04
1090,04	42,44
1090,397	42,27
1090,754	41,76
1091,111	42,36
1091,469	43,37
1091,826	41,9
1092,182	41,51
1092,539	43,87
1092,896	42,41
1093,253	43,61
1093,609	40,64
1093,966	42,43
1094,322	41,94
1094,679	42,27
1095,035	43,24
1095,391	43,3
1095,748	42,27
1096,104	42,2
1096,46	41,67
1096,816	42,67
1097,171	43,19
1097,527	44,11
1097,883	42,45
1098,239	43,62
1098,594	42,53
1098,95	43,86
1099,305	43,43
1099,66	44,34
1100,016	42,78
1100,371	43,16
1100,726	41,82
1101,081	41,95
1101,436	42,6
1101,791	43,88
1102,146	42,4
1102,5	41,63
1102,855	43,57
1103,21	43,98
1103,564	43,33
1103,918	41,74
1104,273	43,49
1104,627	42,76
1104,981	42,7
1105,335	43,03
1105,69	42,73
1106,043	42,38
1106,397	43,02
1106,751	44,31
1107,105	43,65
1107,459	42,73
1107,812	44,01
1108,166	44,18
1108,519	44,59
1108,873	43,48
1109,226	44,11
1109,579	44,4
1109,932	45,69
1110,285	43,69
1110,638	44
1110,991	44,25
1111,344	42,77
1111,697	43,14
1112,05	42,8
1112,402	44,59
1112,755	42,41
1113,107	45,77
1113,46	44,06
1113,812	44,02
1114,164	44,52
1114,517	44,51
1114,869	81,88
1115,221	69,86
1115,573	59,86
1115,924	68,44
