Data from B_1__Relative__4__00021.txt Node

Date: Mon Jan 29 18:06:16 CET 2024
User: diatiterra
Spectrometer: HDX00911
Trigger mode: 0
Integration Time (sec): 6,000000E-3
Scans to average: 2
Nonlinearity correction enabled: false
Boxcar width: 0
Storing dark spectrum: false
XAxis mode: Wavelengths
Number of Pixels in Spectrum: 2068
>>>>>Begin Spectral Data<<<<<
194,468	39,22
195,025	43,36
195,581	50
196,138	44,62
196,694	32,76
197,251	34,67
197,807	44,8
198,363	37,82
198,919	34,16
199,474	40,36
200,03	30,51
200,586	33,67
201,141	32,96
201,696	35,99
202,251	32,1
202,806	39,85
203,361	34,39
203,916	40,07
204,471	38,73
205,025	31,07
205,58	36,92
206,134	35,93
206,688	31,52
207,242	37,07
207,796	32,2
208,35	25,99
208,904	34,24
209,457	29,6
210,011	32,87
210,564	31,6
211,117	38,03
211,67	39,44
212,223	31,85
212,776	41,95
213,329	35,05
213,881	35
214,434	37,59
214,986	41,41
215,538	43,22
216,09	33,77
216,642	36,3
217,194	31,46
217,746	36,7
218,297	37,25
218,849	31,46
219,4	38,46
219,951	39,64
220,502	38,33
221,053	34,17
221,604	39,6
222,155	41,15
222,705	39,13
223,256	39,93
223,806	42,18
224,356	41,3
224,906	35,56
225,456	35,86
226,006	30,87
226,556	41,61
227,106	36,71
227,655	36,59
228,204	38,16
228,754	34,14
229,303	39,32
229,852	42,16
230,401	36,2
230,949	44,36
231,498	35,82
232,047	34,68
232,595	28,72
233,143	38,64
233,691	45,2
234,239	35,07
234,787	31,12
235,335	36,05
235,883	34,77
236,43	44,81
236,978	37,09
237,525	38,81
238,072	37,64
238,619	32,88
239,166	37,37
239,713	34,94
240,26	37,83
240,806	34,4
241,353	37,1
241,899	35,28
242,445	41,61
242,991	38,33
243,537	34,98
244,083	41,45
244,629	36,82
245,174	36,57
245,72	38,46
246,265	27,56
246,81	38,69
247,355	33,46
247,9	31,83
248,445	45,17
248,99	32,87
249,534	40,19
250,079	36,19
250,623	28,47
251,168	42,62
251,712	39,36
252,256	38,87
252,8	35,76
253,343	41,08
253,887	39,12
254,43	39,78
254,974	39,51
255,517	34,9
256,06	28,42
256,603	41,13
257,146	32,32
257,689	38,29
258,232	44,44
258,774	31
259,317	36,26
259,859	39,11
260,401	35,98
260,943	38,06
261,485	44,68
262,027	34,14
262,569	39,85
263,11	40,79
263,652	35,29
264,193	32,14
264,734	37,7
265,275	38,55
265,816	33,81
266,357	42,81
266,898	27,3
267,438	32,94
267,979	34,91
268,519	29,96
269,059	31,91
269,6	37,89
270,14	36,63
270,68	35,25
271,219	34,04
271,759	25,37
272,298	30,18
272,838	35,66
273,377	36,67
273,916	34,66
274,455	34,48
274,994	39,93
275,533	36,86
276,072	42,11
276,61	37,88
277,149	25,36
277,687	35,23
278,225	29,11
278,763	42,39
279,301	31,7
279,839	34,42
280,377	29,93
280,914	33,7
281,452	40,65
281,989	36,52
282,526	42,65
283,064	37,5
283,601	39,02
284,137	36,86
284,674	40,75
285,211	29,86
285,747	33,56
286,284	33,68
286,82	42,55
287,356	31,62
287,892	34,39
288,428	35,25
288,964	32,13
289,5	36,39
290,035	33,09
290,571	36,19
291,106	29,82
291,641	30,27
292,176	37,97
292,711	33,1
293,246	25,63
293,781	32,34
294,315	35,66
294,85	39,78
295,384	35,56
295,918	31,36
296,453	34,98
296,987	37,24
297,52	33,56
298,054	28,31
298,588	30,71
299,121	30,04
299,655	30,53
300,188	40,3
300,721	34,83
301,254	37,37
301,787	26,42
302,32	42,42
302,853	31,01
303,385	34,07
303,918	33,33
304,45	30,89
304,982	29,88
305,514	43,17
306,046	37,54
306,578	32,86
307,11	31,23
307,641	32,36
308,173	30,86
308,704	37,55
309,236	33,71
309,767	32,92
310,298	30,66
310,829	41,83
311,359	30,25
311,89	30,6
312,421	35,51
312,951	30,91
313,481	32,13
314,012	33,7
314,542	32,53
315,072	30,18
315,601	34,52
316,131	27,74
316,661	34,17
317,19	22,78
317,72	31,14
318,249	38,51
318,778	30,8
319,307	32,77
319,836	34,23
320,365	33,88
320,893	34,4
321,422	35,45
321,95	32,59
322,479	35,64
323,007	32,25
323,535	33,96
324,063	34,33
324,591	24,33
325,118	24,83
325,646	26,54
326,173	37,5
326,701	26,91
327,228	34,82
327,755	34,05
328,282	29,43
328,809	30,74
329,336	36,33
329,862	38,08
330,389	35,49
330,915	31,91
331,441	33,22
331,968	30,24
332,494	30,1
333,02	21,53
333,545	25,63
334,071	34,33
334,597	26,69
335,122	19,4
335,648	31,87
336,173	28,71
336,698	25,68
337,223	23,89
337,748	31,58
338,272	27,06
338,797	31,72
339,322	27,91
339,846	25
340,37	23,81
340,894	22,6
341,419	27,18
341,942	29,87
342,466	26,62
342,99	20,92
343,514	20,13
344,037	22,62
344,56	22,26
345,084	25,87
345,607	26,14
346,13	29,85
346,653	24,21
347,175	26,13
347,698	21,13
348,221	22,67
348,743	23,62
349,265	21,73
349,787	24,29
350,309	27,55
350,831	22,39
351,353	23,28
351,875	21,91
352,397	23,14
352,918	26,55
353,439	27,91
353,961	26,48
354,482	28,65
355,003	19,84
355,524	27,3
356,044	25,86
356,565	21,7
357,086	22,65
357,606	24,82
358,126	23,11
358,646	23,88
359,167	22,6
359,687	21,23
360,206	20,96
360,726	18,83
361,246	25,78
361,765	19,3
362,285	21,09
362,804	21,11
363,323	16,74
363,842	22,38
364,361	21,43
364,88	22,15
365,398	19,87
365,917	23,61
366,435	23,82
366,954	16,23
367,472	18,12
367,99	17,25
368,508	21,68
369,026	15,31
369,544	16,18
370,061	22,67
370,579	16,7
371,096	18,25
371,613	17,98
372,131	17,96
372,648	22,92
373,165	15,77
373,681	18,21
374,198	17,05
374,715	16,84
375,231	11,92
375,747	18,18
376,264	20,29
376,78	18,18
377,296	19,3
377,812	17,66
378,327	16,74
378,843	19,65
379,359	18,55
379,874	15,85
380,389	18,02
380,905	19,23
381,42	18,28
381,935	17,07
382,449	18,04
382,964	20,58
383,479	18,39
383,993	18,51
384,508	15,93
385,022	17,62
385,536	15,55
386,05	14,57
386,564	15,32
387,078	14,55
387,592	16,04
388,105	14,06
388,619	14,85
389,132	13,4
389,645	16,01
390,158	14,96
390,671	15,68
391,184	12,85
391,697	14,52
392,21	15,36
392,722	14,2
393,235	12,36
393,747	13,77
394,259	12,8
394,771	12,54
395,283	12,18
395,795	12,42
396,307	12,16
396,818	13,62
397,33	10,36
397,841	12,9
398,353	11,81
398,864	11,25
399,375	10,92
399,886	10,71
400,397	11,53
400,907	10,46
401,418	10,37
401,928	9,94
402,439	10,87
402,949	11,08
403,459	10,56
403,969	10,04
404,479	11,21
404,989	9,6
405,498	9,24
406,008	8,82
406,517	9,11
407,027	9,52
407,536	8,27
408,045	7,69
408,554	8,03
409,063	7,74
409,572	7,06
410,08	7,87
410,589	6,9
411,097	6,8
411,606	6,5
412,114	7,23
412,622	6,19
413,13	6,84
413,638	6,45
414,145	6,24
414,653	5,79
415,16	6,02
415,668	4,96
416,175	5,55
416,682	5,61
417,189	5,42
417,696	4,72
418,203	5,1
418,71	5,5
419,216	5,12
419,723	5,07
420,229	4,66
420,735	4,96
421,242	4,69
421,748	4,89
422,254	4,7
422,759	5,19
423,265	4,32
423,771	4,6
424,276	4,35
424,781	4,64
425,287	4,55
425,792	4,52
426,297	4,74
426,802	4,34
427,306	4,43
427,811	4,04
428,316	4,66
428,82	4,19
429,324	4,21
429,829	4,23
430,333	4,08
430,837	4,44
431,34	4
431,844	3,65
432,348	3,73
432,851	3,88
433,355	4,38
433,858	3,85
434,361	3,84
434,864	3,8
435,367	3,69
435,87	4,12
436,373	4,09
436,876	3,5
437,378	3,46
437,88	3,89
438,383	3,77
438,885	3,95
439,387	3,85
439,889	3,71
440,391	4,27
440,892	3,99
441,394	3,79
441,896	3,71
442,397	3,62
442,898	3,75
443,399	4,16
443,9	4,06
444,401	3,91
444,902	3,78
445,403	3,51
445,903	3,51
446,404	3,79
446,904	3,67
447,405	3,79
447,905	3,84
448,405	3,97
448,905	3,71
449,404	3,94
449,904	3,89
450,404	3,7
450,903	3,85
451,403	3,83
451,902	3,98
452,401	3,79
452,9	3,71
453,399	4,08
453,898	3,9
454,396	3,68
454,895	3,89
455,393	3,62
455,892	3,88
456,39	4,14
456,888	3,85
457,386	3,86
457,884	3,96
458,382	3,9
458,879	4,06
459,377	3,8
459,874	3,76
460,372	3,73
460,869	3,94
461,366	3,96
461,863	4,02
462,36	3,88
462,857	3,69
463,353	3,86
463,85	3,71
464,346	3,78
464,843	3,56
465,339	3,91
465,835	3,71
466,331	3,79
466,827	3,94
467,323	3,71
467,818	3,68
468,314	3,78
468,809	3,75
469,305	3,93
469,8	3,74
470,295	3,82
470,79	3,87
471,285	3,82
471,78	3,84
472,274	3,71
472,769	3,87
473,263	3,83
473,758	4,05
474,252	3,82
474,746	3,83
475,24	3,78
475,734	3,93
476,228	3,82
476,721	3,83
477,215	3,67
477,708	3,96
478,202	3,91
478,695	3,58
479,188	3,61
479,681	3,9
480,174	3,92
480,667	3,92
481,159	3,58
481,652	3,9
482,144	3,82
482,637	3,93
483,129	3,9
483,621	3,72
484,113	4,03
484,605	4,06
485,097	4,05
485,588	3,88
486,08	3,77
486,571	3,87
487,063	3,94
487,554	3,97
488,045	3,94
488,536	4,12
489,027	3,86
489,518	3,93
490,008	4
490,499	3,97
490,989	3,91
491,48	4,07
491,97	4,16
492,46	4,1
492,95	4,37
493,44	4,11
493,93	4,21
494,419	4,24
494,909	4,16
495,398	4,39
495,888	4,42
496,377	4,31
496,866	4,29
497,355	4,2
497,844	4,44
498,333	4,26
498,821	4,45
499,31	4,47
499,798	4,59
500,287	4,64
500,775	4,67
501,263	4,91
501,751	4,87
502,239	4,81
502,727	5,02
503,215	4,86
503,702	5,15
504,19	5,19
504,677	5,15
505,164	5,38
505,651	5,55
506,139	5,6
506,625	5,73
507,112	5,78
507,599	5,86
508,086	5,86
508,572	6,19
509,058	6,19
509,545	6,36
510,031	6,51
510,517	6,62
511,003	6,82
511,489	7,07
511,974	7,2
512,46	7,4
512,946	7,47
513,431	7,65
513,916	7,96
514,401	7,99
514,887	8,2
515,371	8,21
515,856	8,39
516,341	8,91
516,826	9,23
517,31	9,11
517,795	9,49
518,279	9,67
518,763	10,06
519,247	10,23
519,731	10,68
520,215	10,73
520,699	10,96
521,182	11,27
521,666	11,2
522,149	11,78
522,633	11,85
523,116	12,16
523,599	12,3
524,082	12,6
524,565	13,06
525,048	12,91
525,53	13,31
526,013	13,55
526,495	13,88
526,978	14,12
527,46	14,4
527,942	14,55
528,424	14,71
528,906	14,9
529,388	14,79
529,87	15,1
530,351	15,51
530,833	15,75
531,314	15,63
531,795	15,99
532,277	16,05
532,758	16,22
533,238	16,27
533,719	16,69
534,2	16,63
534,681	16,52
535,161	16,75
535,642	16,84
536,122	16,79
536,602	16,99
537,082	17,22
537,562	17,18
538,042	17,17
538,522	17,37
539,001	17,38
539,481	17,47
539,96	17,26
540,44	17,38
540,919	17,59
541,398	17,38
541,877	17,5
542,356	17,79
542,835	17,6
543,313	17,7
543,792	17,91
544,27	17,67
544,749	18,03
545,227	17,72
545,705	18,02
546,183	17,72
546,661	17,74
547,139	17,92
547,616	18
548,094	18,43
548,571	18,08
549,049	18,23
549,526	18,33
550,003	18,34
550,48	18,18
550,957	18,41
551,434	18,45
551,911	18,53
552,387	18,11
552,864	18,3
553,34	18,21
553,817	18,19
554,293	18,47
554,769	18,22
555,245	18,4
555,721	18,34
556,197	18,45
556,672	18,25
557,148	18,17
557,623	18,22
558,099	17,97
558,574	18,08
559,049	17,95
559,524	17,66
559,999	17,95
560,474	17,62
560,948	17,78
561,423	17,88
561,897	17,8
562,372	17,89
562,846	17,48
563,32	17,54
563,794	17,32
564,268	17,1
564,742	17
565,216	16,82
565,69	16,86
566,163	16,9
566,636	16,43
567,11	16,19
567,583	16,27
568,056	16,45
568,529	16,3
569,002	16,06
569,475	15,91
569,947	15,79
570,42	15,58
570,892	15,42
571,365	15,09
571,837	14,96
572,309	15,09
572,781	14,82
573,253	14,92
573,725	14,41
574,197	14,36
574,668	14,46
575,14	14,21
575,611	14,02
576,082	13,82
576,554	13,77
577,025	13,73
577,496	13,56
577,967	13,47
578,437	13,33
578,908	13,24
579,379	12,98
579,849	13,02
580,319	13,07
580,79	12,78
581,26	12,71
581,73	12,81
582,2	12,54
582,669	12,55
583,139	12,49
583,609	12,36
584,078	12,22
584,548	12,02
585,017	12,13
585,486	11,83
585,955	11,81
586,424	11,84
586,893	11,7
587,362	11,58
587,83	11,62
588,299	11,54
588,767	11,62
589,236	11,3
589,704	11,62
590,172	11,41
590,64	11,22
591,108	11,25
591,576	11,24
592,043	11,04
592,511	11,1
592,978	10,93
593,446	11,09
593,913	10,82
594,38	11,12
594,847	10,93
595,314	10,94
595,781	10,94
596,248	10,71
596,715	10,87
597,181	10,77
597,647	10,64
598,114	10,73
598,58	10,75
599,046	10,76
599,512	10,52
599,978	10,57
600,444	10,73
600,91	10,53
601,375	10,45
601,841	10,46
602,306	10,53
602,771	10,51
603,236	10,43
603,702	10,52
604,167	10,24
604,631	10,35
605,096	10,14
605,561	10,12
606,025	10,08
606,49	9,97
606,954	10,03
607,418	10,01
607,882	9,86
608,347	9,86
608,81	9,88
609,274	9,77
609,738	9,67
610,202	9,49
610,665	9,6
611,128	9,34
611,592	9,34
612,055	9,29
612,518	9,18
612,981	9,04
613,444	9,02
613,907	9
614,369	8,89
614,832	8,89
615,294	8,76
615,757	8,6
616,219	8,49
616,681	8,51
617,143	8,61
617,605	8,49
618,067	8,45
618,529	8,35
618,99	8,38
619,452	8,25
619,913	8,14
620,375	8,13
620,836	8,04
621,297	8,02
621,758	7,95
622,219	8,01
622,68	7,93
623,14	7,93
623,601	7,85
624,061	7,87
624,522	7,83
624,982	7,91
625,442	7,92
625,902	7,8
626,362	7,76
626,822	7,79
627,282	7,68
627,742	7,81
628,201	7,76
628,661	7,72
629,12	7,7
629,579	7,69
630,038	7,63
630,497	7,66
630,956	7,72
631,415	7,58
631,874	7,53
632,332	7,56
632,791	7,61
633,249	7,42
633,708	7,41
634,166	7,37
634,624	7,34
635,082	7,34
635,54	7,33
635,998	7,31
636,455	7,18
636,913	7,17
637,37	7,09
637,828	7,16
638,285	7,07
638,742	6,8
639,199	6,97
639,656	6,67
640,113	6,72
640,57	6,53
641,027	6,65
641,483	6,5
641,94	6,35
642,396	6,27
642,852	6,3
643,309	6,22
643,765	6,09
644,221	5,93
644,676	6,06
645,132	5,89
645,588	5,88
646,043	5,65
646,499	5,53
646,954	5,62
647,409	5,48
647,864	5,46
648,319	5,39
648,774	5,33
649,229	5,24
649,684	5,3
650,139	5,25
650,593	5,14
651,047	5,05
651,502	5,15
651,956	5,1
652,41	4,99
652,864	4,99
653,318	5,06
653,772	4,88
654,225	4,88
654,679	4,82
655,133	4,85
655,586	4,84
656,039	4,68
656,492	4,71
656,946	4,74
657,399	4,67
657,851	4,62
658,304	4,59
658,757	4,61
659,209	4,46
659,662	4,46
660,114	4,38
660,567	4,37
661,019	4,37
661,471	4,28
661,923	4,23
662,375	4,19
662,826	4,18
663,278	4,02
663,73	4,07
664,181	4,03
664,632	4,08
665,084	3,98
665,535	3,97
665,986	3,98
666,437	4,06
666,888	3,97
667,338	3,96
667,789	3,97
668,24	4,02
668,69	4,04
669,14	4
669,591	3,99
670,041	3,96
670,491	4,04
670,941	3,99
671,391	4
671,84	4,02
672,29	4,03
672,74	4,1
673,189	4,15
673,638	4,15
674,088	4,19
674,537	4,25
674,986	4,26
675,435	4,25
675,883	4,3
676,332	4,43
676,781	4,48
677,229	4,52
677,678	4,6
678,126	4,58
678,574	4,71
679,022	4,7
679,47	4,77
679,918	4,96
680,366	4,99
680,814	4,88
681,261	5,03
681,709	5,06
682,156	5,18
682,604	5,19
683,051	5,28
683,498	5,32
683,945	5,51
684,392	5,5
684,839	5,55
685,286	5,65
685,732	5,65
686,179	5,76
686,625	5,83
687,071	5,93
687,518	6,07
687,964	6,16
688,41	6,34
688,856	6,5
689,301	6,63
689,747	6,77
690,193	6,96
690,638	7,23
691,084	7,41
691,529	7,76
691,974	8
692,419	8,36
692,864	8,62
693,309	9,12
693,754	9,33
694,199	9,74
694,643	10,21
695,088	10,54
695,532	10,95
695,977	11,32
696,421	11,92
696,865	12,42
697,309	12,87
697,753	13,29
698,197	13,85
698,64	14,25
699,084	14,56
699,527	15,03
699,971	15,76
700,414	16,29
700,857	16,53
701,3	17,06
701,743	17,41
702,186	17,92
702,629	18,54
703,072	18,88
703,515	19,44
703,957	19,85
704,399	20,41
704,842	20,77
705,284	21,16
705,726	21,7
706,168	21,89
706,61	22,44
707,052	22,88
707,494	23,46
707,935	23,8
708,377	24,16
708,818	24,33
709,26	24,76
709,701	25,23
710,142	25,61
710,583	25,93
711,024	26,37
711,465	26,88
711,905	27,13
712,346	27,5
712,787	27,85
713,227	28,38
713,667	28,51
714,108	28,77
714,548	29,35
714,988	29,83
715,428	29,67
715,868	30,4
716,307	30,84
716,747	31,13
717,186	31,19
717,626	31,78
718,065	31,67
718,504	32,06
718,944	32,37
719,383	32,75
719,822	33,2
720,261	33,53
720,699	33,66
721,138	33,83
721,576	34,1
722,015	33,99
722,453	34,59
722,892	35,02
723,33	35,07
723,768	35,37
724,206	35,39
724,644	35,82
725,081	36,03
725,519	36,19
725,957	36,23
726,394	36,87
726,832	36,69
727,269	36,89
727,706	37,38
728,143	37,33
728,58	37,38
729,017	37,73
729,454	37,68
729,89	37,84
730,327	38,19
730,764	38,18
731,2	38,37
731,636	38,35
732,072	38,47
732,509	38,88
732,945	38,75
733,38	38,97
733,816	38,8
734,252	38,86
734,688	39,44
735,123	39,11
735,559	39,39
735,994	39,36
736,429	39,47
736,864	39,7
737,299	39,59
737,734	39,93
738,169	39,86
738,604	39,89
739,038	39,63
739,473	39,89
739,907	40,23
740,342	39,91
740,776	39,88
741,21	40,19
741,644	40,29
742,078	40,11
742,512	40,45
742,946	40,02
743,379	40,32
743,813	40,35
744,246	40,4
744,68	40,6
745,113	40,39
745,546	40,61
745,979	40,41
746,412	40,6
746,845	40,22
747,278	40,16
747,711	40,44
748,143	40,3
748,576	40,46
749,008	40,85
749,441	40,39
749,873	40,15
750,305	40,54
750,737	40,18
751,169	40,52
751,601	40,47
752,032	40,33
752,464	40
752,896	40,23
753,327	40,05
753,758	40,47
754,19	40,37
754,621	40,17
755,052	40,17
755,483	39,99
755,914	40,45
756,344	40,13
756,775	40,04
757,206	40,28
757,636	40,11
758,066	40,26
758,497	40,31
758,927	40,1
759,357	40,25
759,787	40,14
760,217	40,1
760,647	39,87
761,076	39,99
761,506	39,87
761,935	40
762,365	40,04
762,794	39,75
763,223	39,71
763,653	39,78
764,082	40,13
764,51	39,79
764,939	39,77
765,368	39,98
765,797	39,44
766,225	40,02
766,654	39,98
767,082	39,93
767,51	39,63
767,938	39,71
768,367	39,53
768,795	39,39
769,222	39,77
769,65	39,74
770,078	39,68
770,505	39,48
770,933	39,85
771,36	39,59
771,788	39,63
772,215	39,62
772,642	39,72
773,069	39,59
773,496	39,54
773,923	39,51
774,349	39,44
774,776	39,5
775,203	39,42
775,629	39,48
776,055	39,36
776,482	39,5
776,908	39,3
777,334	39,32
777,76	39,52
778,186	39,26
778,611	39,24
779,037	39,27
779,463	39,32
779,888	39,21
780,314	39,29
780,739	39,41
781,164	39,14
781,589	39,44
782,014	39,45
782,439	39,4
782,864	39,58
783,289	39,38
783,713	39,45
784,138	39,25
784,562	39,22
784,987	39,2
785,411	38,9
785,835	38,99
786,259	39,23
786,683	39,35
787,107	39,4
787,531	39
787,954	39,12
788,378	39,36
788,802	39,06
789,225	39,17
789,648	39,3
790,071	39,32
790,495	39,38
790,918	38,99
791,34	39,23
791,763	38,92
792,186	39,25
792,609	39,34
793,031	39,25
793,454	39,05
793,876	39,2
794,298	39,12
794,721	39,15
795,143	38,92
795,565	38,76
795,986	39,25
796,408	38,91
796,83	38,94
797,252	38,97
797,673	39,16
798,094	38,96
798,516	38,98
798,937	38,79
799,358	38,89
799,779	39,07
800,2	38,78
800,621	39,04
801,042	39,05
801,462	38,98
801,883	38,98
802,303	39,02
802,724	38,92
803,144	39,08
803,564	39,15
803,984	38,86
804,404	38,71
804,824	38,88
805,244	39,08
805,664	39,1
806,084	38,74
806,503	38,73
806,923	38,71
807,342	39
807,761	38,83
808,18	39,04
808,599	38,81
809,018	39,21
809,437	38,9
809,856	38,97
810,275	39,14
810,693	39,07
811,112	38,71
811,53	38,96
811,949	39,14
812,367	38,68
812,785	38,94
813,203	38,84
813,621	38,81
814,039	38,74
814,457	38,8
814,874	38,92
815,292	38,9
815,709	38,78
816,127	38,72
816,544	39,07
816,961	38,73
817,378	38,93
817,795	38,85
818,212	38,68
818,629	38,68
819,046	38,96
819,462	38,81
819,879	38,96
820,295	38,9
820,712	39
821,128	38,79
821,544	38,52
821,96	39,02
822,376	38,85
822,792	38,7
823,208	38,74
823,624	38,77
824,039	38,9
824,455	39,09
824,87	38,8
825,286	39,06
825,701	38,91
826,116	38,85
826,531	38,74
826,946	38,99
827,361	38,87
827,776	38,98
828,19	39,01
828,605	38,73
829,02	38,68
829,434	38,75
829,848	38,72
830,263	38,77
830,677	38,73
831,091	38,76
831,505	38,75
831,919	39,13
832,332	38,64
832,746	38,76
833,16	38,46
833,573	38,67
833,987	38,52
834,4	38,69
834,813	38,65
835,226	38,76
835,639	38,76
836,052	39
836,465	38,76
836,878	38,71
837,29	38,47
837,703	38,81
838,116	38,6
838,528	38,38
838,94	38,63
839,352	38,8
839,765	38,65
840,177	38,65
840,589	38,67
841	38,96
841,412	38,6
841,824	38,71
842,235	38,87
842,647	38,76
843,058	38,85
843,47	38,69
843,881	38,68
844,292	38,85
844,703	38,52
845,114	38,6
845,525	38,65
845,935	38,55
846,346	38,63
846,757	38,39
847,167	38,76
847,577	38,57
847,988	38,54
848,398	38,94
848,808	38,44
849,218	38,94
849,628	38,46
850,038	38,62
850,448	38,56
850,857	38,7
851,267	38,83
851,676	38,63
852,086	38,4
852,495	38,75
852,904	38,71
853,313	38,64
853,722	38,59
854,131	38,54
854,54	38,68
854,949	38,6
855,357	38,73
855,766	38,8
856,174	38,5
856,583	38,29
856,991	38,5
857,399	38,47
857,807	38,55
858,215	38,73
858,623	38,47
859,031	38,67
859,439	38,44
859,846	38,59
860,254	38,59
860,661	38,55
861,069	38,55
861,476	38,86
861,883	38,74
862,29	38,39
862,697	38,47
863,104	38,21
863,511	38,34
863,918	38,59
864,325	38,54
864,731	38,81
865,138	38,67
865,544	38,59
865,95	38,59
866,357	38,75
866,763	38,5
867,169	38,4
867,575	38,52
867,98	38,27
868,386	38,68
868,792	38,93
869,197	38,77
869,603	38,57
870,008	38,45
870,414	38,36
870,819	38,93
871,224	38,72
871,629	38,63
872,034	38,55
872,439	38,63
872,844	38,46
873,248	38,37
873,653	38,51
874,057	38,59
874,462	38,48
874,866	38,45
875,27	38,86
875,674	38,7
876,078	38,39
876,482	38,43
876,886	38,42
877,29	38,56
877,694	38,71
878,097	38,64
878,501	38,58
878,904	38,71
879,308	38,63
879,711	38,59
880,114	38,62
880,517	38,29
880,92	38,49
881,323	38,69
881,726	38,27
882,128	38,58
882,531	38,81
882,934	38,56
883,336	38,26
883,738	38,5
884,141	38,63
884,543	38,38
884,945	38,53
885,347	38,39
885,749	38,44
886,151	38,26
886,552	38,65
886,954	38,56
887,355	38,54
887,757	38,62
888,158	38,52
888,56	38,58
888,961	38,3
889,362	38,32
889,763	38,31
890,164	38,78
890,565	38,54
890,965	38,64
891,366	38,3
891,767	38,57
892,167	38,43
892,567	38,5
892,968	38,74
893,368	38,4
893,768	38,61
894,168	38,55
894,568	38,61
894,968	38,57
895,368	38,37
895,767	38,47
896,167	38,43
896,566	38,65
896,966	38,48
897,365	38,55
897,764	38,47
898,164	38,65
898,563	38,43
898,962	38,52
899,361	38,44
899,759	38,55
900,158	38,47
900,557	38,68
900,955	38,57
901,354	38,59
901,752	38,74
902,15	38,58
902,548	38,71
902,947	38,46
903,345	38,31
903,742	38,29
904,14	38,44
904,538	38,56
904,936	38,89
905,333	38,36
905,731	38,88
906,128	38,21
906,525	38,59
906,923	38,65
907,32	38,49
907,717	38,31
908,114	38,67
908,511	38,54
908,907	38,87
909,304	38,38
909,701	38,41
910,097	39,11
910,494	38,57
910,89	38,54
911,286	38,51
911,682	38,42
912,078	38,41
912,474	38,53
912,87	38,52
913,266	38,48
913,662	38,57
914,058	38,25
914,453	38,42
914,849	38,51
915,244	38,65
915,639	38,75
916,034	38,65
916,43	38,56
916,825	38,17
917,22	38,49
917,614	38,62
918,009	38,31
918,404	38,37
918,798	38,64
919,193	38,49
919,587	38,43
919,982	38,24
920,376	38,57
920,77	38,73
921,164	38,45
921,558	38,48
921,952	38,39
922,346	38,53
922,74	38,43
923,133	38,92
923,527	38,09
923,92	38,42
924,314	38,43
924,707	38,46
925,1	38,32
925,493	38,65
925,886	38,76
926,279	38,78
926,672	38,22
927,065	38,4
927,457	38,14
927,85	38,73
928,243	38,03
928,635	38,31
929,027	38,43
929,42	38,66
929,812	38,08
930,204	38,55
930,596	38,1
930,988	38,03
931,379	38,24
931,771	38,24
932,163	38,39
932,554	38,25
932,946	38,37
933,337	38,05
933,729	38,84
934,12	38,37
934,511	38,05
934,902	38,39
935,293	38,69
935,684	38,06
936,075	38,23
936,465	38,35
936,856	37,76
937,246	38,3
937,637	37,98
938,027	37,61
938,417	38,2
938,808	38,27
939,198	38,45
939,588	37,95
939,978	37,47
940,368	37,94
940,757	38,65
941,147	38,33
941,537	38,24
941,926	37,77
942,315	37,78
942,705	37,95
943,094	38,07
943,483	37,87
943,872	38,25
944,261	37,71
944,65	37,94
945,039	37,79
945,428	38,74
945,816	37,46
946,205	38,26
946,593	38,04
946,982	38,17
947,37	37,42
947,758	38,11
948,146	37,71
948,534	38,11
948,922	37,88
949,31	38,34
949,698	37,73
950,086	37,71
950,473	37,34
950,861	37,15
951,248	37,57
951,636	37,53
952,023	37,64
952,41	37,16
952,797	37,74
953,184	37,54
953,571	37,19
953,958	37,57
954,345	37,09
954,731	37,28
955,118	37,16
955,505	37,42
955,891	37,46
956,277	37,44
956,664	37,52
957,05	36,96
957,436	37,72
957,822	37,35
958,208	37,41
958,594	37,32
958,979	37,18
959,365	37,55
959,751	37,11
960,136	37,02
960,522	37,42
960,907	37,71
961,292	37,13
961,677	37,1
962,062	37,44
962,447	37,18
962,832	37,13
963,217	37,4
963,602	37,12
963,986	37,23
964,371	37,3
964,756	37,22
965,14	37,03
965,524	37,18
965,908	37,2
966,293	37,24
966,677	37,64
967,061	37,36
967,445	37,15
967,828	37,27
968,212	37,47
968,596	36,89
968,979	37,3
969,363	37,7
969,746	36,97
970,129	37,58
970,513	36,93
970,896	37,41
971,279	37,18
971,662	36,94
972,045	37,61
972,428	37,01
972,81	36,96
973,193	37,14
973,575	37,2
973,958	37,53
974,34	37,45
974,723	37,47
975,105	37,35
975,487	37,78
975,869	37,36
976,251	37,53
976,633	37,42
977,015	37,33
977,396	37,33
977,778	37,71
978,16	37,3
978,541	36,85
978,922	37,26
979,304	37,52
979,685	37,51
980,066	37,45
980,447	37,62
980,828	37,25
981,209	37,37
981,59	37,51
981,97	37,46
982,351	37,89
982,732	37,4
983,112	37,58
983,493	37,23
983,873	37,29
984,253	37,43
984,633	37,57
985,013	37,63
985,393	37,36
985,773	37,01
986,153	37,32
986,533	37,45
986,912	37,57
987,292	37,65
987,671	37,44
988,051	37,58
988,43	37,17
988,809	37,32
989,188	37,29
989,567	37,46
989,946	37,62
990,325	37,42
990,704	37,95
991,083	37,22
991,461	37,65
991,84	37,92
992,218	37,87
992,597	37,2
992,975	37,94
993,353	37,47
993,732	37,74
994,11	38,12
994,488	37,38
994,866	37,35
995,243	37,7
995,621	37,54
995,999	36,97
996,376	37,44
996,754	37,75
997,131	37,74
997,509	37,43
997,886	37,48
998,263	37,55
998,64	37,29
999,017	37,59
999,394	38,05
999,771	37,43
1000,148	37,39
1000,524	37,81
1000,901	37,63
1001,277	37,32
1001,654	37,7
1002,03	37,44
1002,406	37,02
1002,783	37,03
1003,159	37,81
1003,535	37,56
1003,911	37,35
1004,286	37,5
1004,662	37,46
1005,038	36,97
1005,414	38,06
1005,789	37,26
1006,164	37,67
1006,54	37,96
1006,915	37,95
1007,29	37,93
1007,665	37,55
1008,04	37,77
1008,415	37,65
1008,79	38,47
1009,165	37,91
1009,54	37,41
1009,914	38,16
1010,289	37,57
1010,663	37,99
1011,038	37,19
1011,412	37,5
1011,786	37,96
1012,16	37,94
1012,535	37,73
1012,909	37,6
1013,282	37,77
1013,656	37,46
1014,03	37,75
1014,404	37,59
1014,777	38,22
1015,151	37,95
1015,524	38,07
1015,897	38,39
1016,271	37,91
1016,644	38,07
1017,017	37,73
1017,39	37,69
1017,763	38,03
1018,136	37,57
1018,508	38,22
1018,881	38,06
1019,254	38,23
1019,626	37,84
1019,999	38,22
1020,371	38,17
1020,743	37,62
1021,116	38
1021,488	37,6
1021,86	38,12
1022,232	38,14
1022,604	37,92
1022,975	38,26
1023,347	38,02
1023,719	38,24
1024,09	37,85
1024,462	37,9
1024,833	38,16
1025,204	37,75
1025,576	38,56
1025,947	38,3
1026,318	37,75
1026,689	37,89
1027,06	37,25
1027,431	37,46
1027,801	37,99
1028,172	38,48
1028,543	38,45
1028,913	37,83
1029,284	37,87
1029,654	37,67
1030,024	37,69
1030,394	37,75
1030,764	38,89
1031,135	38,76
1031,504	38,3
1031,874	38,12
1032,244	38,49
1032,614	37,38
1032,983	38,37
1033,353	38,15
1033,722	38,16
1034,092	37,62
1034,461	38,07
1034,83	38,1
1035,2	38,08
1035,569	38,4
1035,938	37,92
1036,307	38,03
1036,675	37,75
1037,044	38,71
1037,413	37,79
1037,781	37,74
1038,15	37,32
1038,518	37,98
1038,887	38,54
1039,255	38,05
1039,623	38,2
1039,991	38,34
1040,359	37,02
1040,727	38,96
1041,095	38,67
1041,463	37,82
1041,831	38,55
1042,198	37,44
1042,566	37,87
1042,933	37,71
1043,301	37,61
1043,668	38,23
1044,035	38,16
1044,402	39,4
1044,77	38,35
1045,137	38,17
1045,503	38,33
1045,87	38,13
1046,237	37,64
1046,604	37,96
1046,97	38,13
1047,337	38,49
1047,703	37,22
1048,07	38,35
1048,436	38,03
1048,802	37,84
1049,168	38,52
1049,534	38,09
1049,9	37,55
1050,266	38,61
1050,632	37,19
1050,998	37,84
1051,364	37,65
1051,729	37,91
1052,095	38,01
1052,46	38,11
1052,825	38,01
1053,191	37,72
1053,556	37,62
1053,921	37,83
1054,286	38,43
1054,651	37,87
1055,016	38,44
1055,381	37,42
1055,745	38,74
1056,11	38,43
1056,475	37,46
1056,839	37,68
1057,203	37,97
1057,568	38,18
1057,932	36,75
1058,296	38,67
1058,66	38,19
1059,024	38,2
1059,388	37,88
1059,752	38,87
1060,116	38,38
1060,48	39,21
1060,843	38,46
1061,207	37,2
1061,57	38,12
1061,934	39,99
1062,297	38,1
1062,66	38,58
1063,023	38,5
1063,386	37,52
1063,749	37,03
1064,112	37,05
1064,475	38,06
1064,838	37,65
1065,201	37,99
1065,563	37,22
1065,926	38,25
1066,288	38,63
1066,651	36,81
1067,013	37,54
1067,375	37,49
1067,737	37,3
1068,099	38,34
1068,461	38,45
1068,823	37,91
1069,185	37,81
1069,547	37,27
1069,909	38,26
1070,27	38,95
1070,632	37,42
1070,993	38,19
1071,355	37,58
1071,716	38,36
1072,077	37,96
1072,438	38,7
1072,799	38,87
1073,16	37,94
1073,521	37,95
1073,882	37,64
1074,243	39,08
1074,603	37,81
1074,964	38,27
1075,325	37,57
1075,685	40,09
1076,045	38,18
1076,406	38,64
1076,766	38,93
1077,126	38,43
1077,486	39,22
1077,846	37,42
1078,206	38,02
1078,566	38,72
1078,925	38,36
1079,285	37,51
1079,645	39,19
1080,004	36,93
1080,364	37,16
1080,723	37,64
1081,082	39,15
1081,442	36,07
1081,801	39,69
1082,16	38,69
1082,519	37,8
1082,878	39,39
1083,237	37,85
1083,595	39,92
1083,954	37,64
1084,313	39,2
1084,671	40,06
1085,03	38,81
1085,388	37,01
1085,746	39,73
1086,104	37,17
1086,463	37,97
1086,821	38,58
1087,179	38,51
1087,537	39,45
1087,894	36,08
1088,252	36,99
1088,61	38,09
1088,967	39,72
1089,325	38,26
1089,682	37,92
1090,04	37,6
1090,397	37,27
1090,754	38,25
1091,111	38,17
1091,469	37,44
1091,826	36,73
1092,182	37,68
1092,539	37,24
1092,896	39,73
1093,253	36,25
1093,609	36,75
1093,966	37,36
1094,322	38,96
1094,679	37,6
1095,035	37,57
1095,391	38,6
1095,748	39,97
1096,104	38,15
1096,46	39,23
1096,816	37,32
1097,171	37,77
1097,527	39,74
1097,883	38,07
1098,239	38,41
1098,594	38,24
1098,95	40,37
1099,305	39,6
1099,66	37,35
1100,016	38,21
1100,371	38,27
1100,726	36,91
1101,081	38,36
1101,436	38,64
1101,791	38,43
1102,146	36,81
1102,5	37,91
1102,855	37,69
1103,21	39,05
1103,564	38,18
1103,918	36,75
1104,273	39,03
1104,627	37,08
1104,981	38,62
1105,335	39,56
1105,69	39,08
1106,043	37,94
1106,397	38,21
1106,751	35,33
1107,105	37,07
1107,459	36,42
1107,812	37,44
1108,166	38,67
1108,519	37,72
1108,873	39,13
1109,226	37,52
1109,579	38,23
1109,932	38,85
1110,285	38,09
1110,638	37,21
1110,991	40,27
1111,344	37,75
1111,697	38,86
1112,05	37,79
1112,402	39,91
1112,755	39,46
1113,107	38,3
1113,46	37,29
1113,812	41,2
1114,164	40,22
1114,517	36,93
1114,869	25,64
1115,221	47,58
1115,573	37,74
1115,924	38,69
