Data from D_1__Relative__1__00060.txt Node

Date: Mon Jan 29 18:14:24 CET 2024
User: diatiterra
Spectrometer: HDX00911
Trigger mode: 0
Integration Time (sec): 6,000000E-3
Scans to average: 2
Nonlinearity correction enabled: false
Boxcar width: 0
Storing dark spectrum: false
XAxis mode: Wavelengths
Number of Pixels in Spectrum: 2068
>>>>>Begin Spectral Data<<<<<
194,468	72,55
195,025	47,79
195,581	72,34
196,138	66,15
196,694	63,22
197,251	56
197,807	56,8
198,363	55,27
198,919	53,38
199,474	54,29
200,03	41,91
200,586	48,64
201,141	54,31
201,696	47,4
202,251	51,66
202,806	56,02
203,361	50,18
203,916	50,34
204,471	52,11
205,025	46,79
205,58	54,12
206,134	50
206,688	47,83
207,242	51,7
207,796	47,12
208,35	46,21
208,904	47,12
209,457	48,01
210,011	47,2
210,564	48,96
211,117	52,11
211,67	46,83
212,223	48,97
212,776	54,31
213,329	50,17
213,881	42,5
214,434	50,69
214,986	43,77
215,538	51,28
216,09	44,59
216,642	50
217,194	47,02
217,746	47,14
218,297	48,32
218,849	41,43
219,4	55,94
219,951	52,73
220,502	52,96
221,053	46,71
221,604	54,03
222,155	56,79
222,705	51,17
223,256	54,32
223,806	48,64
224,356	53,62
224,906	44,07
225,456	54,48
226,006	46,64
226,556	54,01
227,106	47,9
227,655	47,04
228,204	47,7
228,754	46,9
229,303	55,59
229,852	48,04
230,401	46,95
230,949	60,31
231,498	52,99
232,047	46,13
232,595	43,26
233,143	56,44
233,691	52,8
234,239	52,61
234,787	42,66
235,335	46,26
235,883	48,39
236,43	49,26
236,978	54,18
237,525	47,76
238,072	47,6
238,619	42,47
239,166	52,53
239,713	52,42
240,26	54,68
240,806	54,26
241,353	50,53
241,899	46,93
242,445	50
242,991	58,19
243,537	54,13
244,083	49,09
244,629	47,97
245,174	54,48
245,72	50,5
246,265	53,71
246,81	54,01
247,355	40,81
247,9	52,25
248,445	52,41
248,99	51,21
249,534	42,41
250,079	54,85
250,623	47,46
251,168	51,34
251,712	54,26
252,256	51,16
252,8	56,6
253,343	53,18
253,887	52,04
254,43	56,13
254,974	52,8
255,517	52,01
256,06	46,58
256,603	60,75
257,146	52,19
257,689	47,47
258,232	55,17
258,774	49,08
259,317	59,34
259,859	53,51
260,401	50,38
260,943	59,33
261,485	60,64
262,027	55,86
262,569	59,02
263,11	53,07
263,652	57,35
264,193	52,86
264,734	69,44
265,275	55,42
265,816	49,64
266,357	58,99
266,898	45,39
267,438	54,9
267,979	57,09
268,519	49,82
269,059	50
269,6	45,61
270,14	51,16
270,68	51,72
271,219	57,54
271,759	51,12
272,298	45,09
272,838	53,88
273,377	52,22
273,916	52,71
274,455	62,45
274,994	40,29
275,533	54,61
276,072	49,25
276,61	48,12
277,149	41,3
277,687	56,94
278,225	48,29
278,763	49,28
279,301	54,72
279,839	50
280,377	49,64
280,914	43,59
281,452	54,47
281,989	59,04
282,526	52,33
283,064	53,47
283,601	55,68
284,137	53,28
284,674	60,38
285,211	53,96
285,747	53,22
286,284	44,56
286,82	54,96
287,356	47,42
287,892	52,63
288,428	57,63
288,964	54,15
289,5	48,64
290,035	55,4
290,571	55,22
291,106	49,82
291,641	46,36
292,176	57,52
292,711	54,48
293,246	48,38
293,781	52,79
294,315	54,04
294,85	55,84
295,384	60,74
295,918	48,43
296,453	53
296,987	57,59
297,52	47,6
298,054	48,9
298,588	55,12
299,121	49,45
299,655	52,63
300,188	48,29
300,721	56,9
301,254	51,6
301,787	48,37
302,32	51,14
302,853	49,48
303,385	50,55
303,918	48,77
304,45	54,05
304,982	53,78
305,514	49,82
306,046	46,67
306,578	57,86
307,11	44,61
307,641	54,55
308,173	47,21
308,704	54,02
309,236	53,56
309,767	58,33
310,298	51,92
310,829	49,81
311,359	55,16
311,89	52,31
312,421	57,25
312,951	54,55
313,481	53,41
314,012	50,55
314,542	55,48
315,072	51,27
315,601	54,45
316,131	44,16
316,661	55
317,19	52,67
317,72	46,89
318,249	52,03
318,778	57,41
319,307	50,68
319,836	52,01
320,365	46,25
320,893	50,35
321,422	46,27
321,95	51,48
322,479	57,79
323,007	51,81
323,535	53,58
324,063	57,09
324,591	41,67
325,118	40,21
325,646	51,15
326,173	57,5
326,701	40
327,228	53,99
327,755	49,46
328,282	48,68
328,809	45,19
329,336	55,71
329,862	53,85
330,389	47,44
330,915	54,61
331,441	49,83
331,968	47,08
332,494	45,15
333,02	47,08
333,545	49,82
334,071	46,67
334,597	39,53
335,122	47,49
335,648	56,04
336,173	49,83
336,698	46,92
337,223	56,31
337,748	42,46
338,272	43,56
338,797	48,87
339,322	52,49
339,846	45,7
340,37	44,32
340,894	51,71
341,419	45,3
341,942	50,67
342,466	43
342,99	48,62
343,514	42,53
344,037	52,13
344,56	46,39
345,084	49,53
345,607	45,59
346,13	46,77
346,653	44,03
347,175	50,65
347,698	38,39
348,221	37,21
348,743	43,44
349,265	41,37
349,787	39,14
350,309	41,32
350,831	45,07
351,353	46,3
351,875	40,17
352,397	40,22
352,918	46,33
353,439	41,19
353,961	35,77
354,482	46,63
355,003	42,36
355,524	42,09
356,044	38,79
356,565	42,89
357,086	39,95
357,606	40,24
358,126	40,88
358,646	40,55
359,167	40,54
359,687	40,57
360,206	37,11
360,726	39,96
361,246	39,76
361,765	39,47
362,285	37,91
362,804	37,11
363,323	36,7
363,842	44,05
364,361	34,42
364,88	41,56
365,398	38,41
365,917	40,86
366,435	42,92
366,954	38,28
367,472	37,1
367,99	35,11
368,508	39,45
369,026	36,82
369,544	32,36
370,061	39,72
370,579	33,02
371,096	36,68
371,613	41,47
372,131	39,08
372,648	36,28
373,165	37,95
373,681	37,65
374,198	34,92
374,715	34,03
375,231	30,21
375,747	35,54
376,264	35,14
376,78	38,12
377,296	33,39
377,812	30,42
378,327	33,33
378,843	36,48
379,359	30,43
379,874	32,51
380,389	34,8
380,905	32,36
381,42	32,51
381,935	32,27
382,449	33,29
382,964	28,99
383,479	33,72
383,993	30,89
384,508	33,72
385,022	32,79
385,536	28,3
386,05	29,47
386,564	29,8
387,078	28,06
387,592	30,31
388,105	26,45
388,619	27,43
389,132	27,19
389,645	27,93
390,158	24,32
390,671	27,92
391,184	26,39
391,697	25,81
392,21	25,93
392,722	25,49
393,235	27,17
393,747	27,12
394,259	25,44
394,771	23,27
395,283	24,68
395,795	26,48
396,307	25,87
396,818	25,42
397,33	23,02
397,841	24,89
398,353	22,72
398,864	24,14
399,375	23,79
399,886	22,75
400,397	22,12
400,907	21,86
401,418	21,83
401,928	21,09
402,439	21,16
402,949	20,49
403,459	21,57
403,969	18,72
404,479	19,61
404,989	18,36
405,498	19,11
406,008	17,55
406,517	17,9
407,027	16,67
407,536	15,99
408,045	15,79
408,554	15,63
409,063	15,24
409,572	14,67
410,08	14,13
410,589	13,72
411,097	14,03
411,606	13,58
412,114	12,6
412,622	12,83
413,13	11,42
413,638	11,43
414,145	11,3
414,653	11,08
415,16	11,73
415,668	10,4
416,175	10,56
416,682	10,66
417,189	10,71
417,696	9,83
418,203	9,76
418,71	10,05
419,216	9,78
419,723	9,66
420,229	9,06
420,735	9,5
421,242	9,29
421,748	9,65
422,254	9,29
422,759	9,01
423,265	8,79
423,771	9,18
424,276	8,58
424,781	8,73
425,287	8,72
425,792	8,55
426,297	9,08
426,802	8,63
427,306	8,61
427,811	8,42
428,316	8,76
428,82	8,24
429,324	8,46
429,829	8,28
430,333	8,43
430,837	8,05
431,34	8,35
431,844	7,98
432,348	8,27
432,851	8,32
433,355	8,11
433,858	7,45
434,361	8,41
434,864	8,01
435,367	8,08
435,87	7,88
436,373	7,91
436,876	7,52
437,378	7,74
437,88	7,43
438,383	8,01
438,885	8,2
439,387	7,61
439,889	7,26
440,391	8,13
440,892	7,42
441,394	7,75
441,896	7,67
442,397	7,32
442,898	7,56
443,399	7,99
443,9	8,03
444,401	7,73
444,902	7,57
445,403	7,85
445,903	7,45
446,404	7,37
446,904	7,75
447,405	7,76
447,905	7,72
448,405	7,76
448,905	7,48
449,404	7,73
449,904	7,98
450,404	7,74
450,903	7,68
451,403	8,01
451,902	7,88
452,401	7,86
452,9	8,02
453,399	7,75
453,898	7,6
454,396	7,49
454,895	7,72
455,393	7,73
455,892	7,92
456,39	8,14
456,888	7,62
457,386	7,92
457,884	7,67
458,382	7,79
458,879	7,93
459,377	7,57
459,874	8
460,372	7,87
460,869	7,83
461,366	7,7
461,863	7,97
462,36	8,02
462,857	8,08
463,353	7,78
463,85	7,84
464,346	7,81
464,843	8,02
465,339	8
465,835	7,61
466,331	7,57
466,827	7,87
467,323	7,64
467,818	7,78
468,314	7,94
468,809	7,35
469,305	7,64
469,8	7,83
470,295	7,59
470,79	7,83
471,285	7,79
471,78	7,77
472,274	7,8
472,769	7,82
473,263	7,76
473,758	7,83
474,252	7,93
474,746	7,79
475,24	7,79
475,734	7,99
476,228	7,89
476,721	8
477,215	7,85
477,708	7,91
478,202	7,7
478,695	7,9
479,188	7,8
479,681	7,81
480,174	7,72
480,667	8,17
481,159	7,96
481,652	8,07
482,144	7,84
482,637	7,96
483,129	8,07
483,621	7,78
484,113	8,15
484,605	7,76
485,097	7,74
485,588	7,81
486,08	8,31
486,571	8,14
487,063	8,03
487,554	8,09
488,045	8,06
488,536	8,14
489,027	7,96
489,518	8,11
490,008	8,09
490,499	7,9
490,989	8,11
491,48	8,15
491,97	8,28
492,46	7,97
492,95	8,27
493,44	8,42
493,93	8,33
494,419	8,34
494,909	8,36
495,398	8,32
495,888	8,45
496,377	8,53
496,866	8,3
497,355	8,41
497,844	8,36
498,333	8,77
498,821	8,43
499,31	8,77
499,798	8,55
500,287	8,46
500,775	8,78
501,263	8,67
501,751	8,91
502,239	8,99
502,727	9,19
503,215	9,12
503,702	9,28
504,19	9,16
504,677	9,24
505,164	9,37
505,651	9,56
506,139	9,49
506,625	9,65
507,112	9,89
507,599	9,82
508,086	9,91
508,572	10
509,058	10,33
509,545	10,3
510,031	10,54
510,517	10,51
511,003	10,87
511,489	11,09
511,974	11,02
512,46	11,35
512,946	11,41
513,431	11,54
513,916	11,94
514,401	11,89
514,887	12,26
515,371	12,58
515,856	12,82
516,341	12,91
516,826	13,39
517,31	13,44
517,795	13,53
518,279	14,01
518,763	14,35
519,247	14,31
519,731	14,77
520,215	15,27
520,699	15,16
521,182	15,64
521,666	15,93
522,149	16,27
522,633	16,6
523,116	16,35
523,599	16,89
524,082	17,02
524,565	17,81
525,048	17,64
525,53	18,07
526,013	18,28
526,495	18,81
526,978	18,65
527,46	19,24
527,942	19,43
528,424	19,87
528,906	19,65
529,388	19,72
529,87	20,2
530,351	20,26
530,833	20,71
531,314	20,55
531,795	20,67
532,277	21,07
532,758	21
533,238	21,49
533,719	21,35
534,2	21,63
534,681	21,39
535,161	22,09
535,642	21,97
536,122	21,95
536,602	22,04
537,082	22,25
537,562	22,26
538,042	22,39
538,522	22,37
539,001	22,25
539,481	22,51
539,96	22,39
540,44	22,51
540,919	22,59
541,398	22,98
541,877	22,81
542,356	22,65
542,835	22,54
543,313	22,98
543,792	23,18
544,27	23,04
544,749	22,94
545,227	23,14
545,705	23,11
546,183	23,13
546,661	23,44
547,139	23,31
547,616	23,16
548,094	23,82
548,571	23,39
549,049	23,48
549,526	23,54
550,003	23,34
550,48	23,43
550,957	23,49
551,434	23,3
551,911	23,57
552,387	23,53
552,864	23,48
553,34	23,59
553,817	23,72
554,293	23,7
554,769	23,66
555,245	23,31
555,721	23,74
556,197	23,87
556,672	23,45
557,148	23,37
557,623	23,46
558,099	23,23
558,574	23,35
559,049	23,23
559,524	23,07
559,999	23,23
560,474	22,68
560,948	22,97
561,423	23,13
561,897	22,91
562,372	22,98
562,846	23,08
563,32	22,81
563,794	22,35
564,268	22,22
564,742	22,09
565,216	22
565,69	21,78
566,163	21,59
566,636	21,63
567,11	21,34
567,583	21,44
568,056	21,37
568,529	21,2
569,002	20,94
569,475	20,6
569,947	20,58
570,42	20,55
570,892	20,01
571,365	20,07
571,837	19,74
572,309	19,84
572,781	19,58
573,253	19,35
573,725	18,91
574,197	19,05
574,668	18,96
575,14	18,5
575,611	18,4
576,082	18,38
576,554	18,33
577,025	18,17
577,496	17,95
577,967	17,94
578,437	17,74
578,908	17,47
579,379	17,53
579,849	17,58
580,319	17,27
580,79	17,3
581,26	17,1
581,73	17
582,2	16,94
582,669	16,85
583,139	16,87
583,609	16,51
584,078	16,34
584,548	16,33
585,017	16,19
585,486	16,08
585,955	16,12
586,424	16,11
586,893	15,68
587,362	15,84
587,83	15,72
588,299	15,61
588,767	15,75
589,236	15,53
589,704	15,54
590,172	15,51
590,64	15,41
591,108	15,28
591,576	15,12
592,043	15,37
592,511	15,3
592,978	15,2
593,446	15,05
593,913	14,96
594,38	15,24
594,847	15,11
595,314	14,91
595,781	14,86
596,248	14,92
596,715	14,78
597,181	14,86
597,647	14,73
598,114	14,74
598,58	14,61
599,046	14,72
599,512	14,76
599,978	14,5
600,444	14,71
600,91	14,54
601,375	14,74
601,841	14,74
602,306	14,69
602,771	14,38
603,236	14,36
603,702	14,47
604,167	14,31
604,631	14,33
605,096	14,12
605,561	14,07
606,025	14,05
606,49	14,08
606,954	13,89
607,418	13,79
607,882	13,91
608,347	13,72
608,81	13,75
609,274	13,68
609,738	13,56
610,202	13,51
610,665	13,43
611,128	13,35
611,592	13,34
612,055	13,06
612,518	13,21
612,981	13,1
613,444	12,93
613,907	12,86
614,369	12,85
614,832	12,57
615,294	12,61
615,757	12,41
616,219	12,53
616,681	12,4
617,143	12,27
617,605	12,23
618,067	12,2
618,529	12,27
618,99	12,03
619,452	12,15
619,913	12,23
620,375	12,06
620,836	11,85
621,297	12,02
621,758	11,9
622,219	11,74
622,68	11,88
623,14	11,81
623,601	11,72
624,061	11,72
624,522	11,59
624,982	11,58
625,442	11,69
625,902	11,66
626,362	11,57
626,822	11,62
627,282	11,55
627,742	11,52
628,201	11,37
628,661	11,35
629,12	11,43
629,579	11,31
630,038	11,38
630,497	11,3
630,956	11,32
631,415	11,31
631,874	11,23
632,332	11,26
632,791	11,28
633,249	11,19
633,708	11,13
634,166	11,21
634,624	11,18
635,082	11,02
635,54	11,13
635,998	11
636,455	10,91
636,913	10,89
637,37	10,77
637,828	10,7
638,285	10,73
638,742	10,58
639,199	10,57
639,656	10,43
640,113	10,3
640,57	10,15
641,027	10,23
641,483	10,11
641,94	9,91
642,396	10,04
642,852	10,02
643,309	9,73
643,765	9,79
644,221	9,66
644,676	9,6
645,132	9,46
645,588	9,42
646,043	9,5
646,499	9,3
646,954	9,25
647,409	9,14
647,864	9,06
648,319	9,02
648,774	8,93
649,229	8,97
649,684	8,93
650,139	8,85
650,593	8,76
651,047	8,86
651,502	8,78
651,956	8,74
652,41	8,78
652,864	8,66
653,318	8,46
653,772	8,48
654,225	8,43
654,679	8,48
655,133	8,47
655,586	8,41
656,039	8,5
656,492	8,4
656,946	8,4
657,399	8,31
657,851	8,29
658,304	8,09
658,757	8,31
659,209	8,1
659,662	8,04
660,114	7,9
660,567	7,97
661,019	7,99
661,471	7,98
661,923	7,8
662,375	7,79
662,826	7,84
663,278	7,78
663,73	7,76
664,181	7,72
664,632	7,7
665,084	7,72
665,535	7,67
665,986	7,75
666,437	7,79
666,888	7,6
667,338	7,63
667,789	7,74
668,24	7,68
668,69	7,75
669,14	7,62
669,591	7,73
670,041	7,7
670,491	7,64
670,941	7,85
671,391	7,97
671,84	7,83
672,29	7,83
672,74	7,99
673,189	8,02
673,638	7,98
674,088	8,04
674,537	8,1
674,986	8,17
675,435	8,24
675,883	8,08
676,332	8,32
676,781	8,41
677,229	8,53
677,678	8,57
678,126	8,59
678,574	8,69
679,022	8,73
679,47	8,8
679,918	8,85
680,366	8,95
680,814	8,93
681,261	9,11
681,709	9,11
682,156	9,21
682,604	9,38
683,051	9,27
683,498	9,41
683,945	9,44
684,392	9,52
684,839	9,65
685,286	9,64
685,732	9,84
686,179	9,84
686,625	9,93
687,071	9,9
687,518	10,02
687,964	10,18
688,41	10,23
688,856	10,32
689,301	10,46
689,747	10,58
690,193	10,89
690,638	11,03
691,084	11,2
691,529	11,5
691,974	11,76
692,419	12,04
692,864	12,3
693,309	12,66
693,754	13,01
694,199	13,58
694,643	13,91
695,088	14,35
695,532	14,82
695,977	15,28
696,421	15,75
696,865	16,2
697,309	16,8
697,753	17,22
698,197	17,71
698,64	18,42
699,084	18,85
699,527	19,44
699,971	19,9
700,414	20,59
700,857	20,99
701,3	21,75
701,743	22,13
702,186	22,83
702,629	23,58
703,072	23,79
703,515	24,48
703,957	25,32
704,399	25,69
704,842	26,26
705,284	27,05
705,726	27,27
706,168	27,97
706,61	28,54
707,052	29,15
707,494	29,65
707,935	30,27
708,377	30,88
708,818	31,39
709,26	31,55
709,701	32,27
710,142	32,9
710,583	33,28
711,024	33,81
711,465	34,37
711,905	34,9
712,346	35,25
712,787	35,77
713,227	36,41
713,667	36,91
714,108	37,44
714,548	38,24
714,988	38,38
715,428	38,82
715,868	39,46
716,307	39,95
716,747	40,51
717,186	40,86
717,626	41,49
718,065	41,73
718,504	42,19
718,944	42,8
719,383	43,06
719,822	43,49
720,261	43,93
720,699	44,32
721,138	44,8
721,576	45,27
722,015	45,26
722,453	46,07
722,892	46,39
723,33	46,5
723,768	47,28
724,206	47,57
724,644	47,65
725,081	48,36
725,519	48,22
725,957	48,76
726,394	49,03
726,832	49,45
727,269	49,5
727,706	50,14
728,143	50,31
728,58	50,45
729,017	50,3
729,454	51,05
729,89	50,9
730,327	51,47
730,764	51,48
731,2	52,27
731,636	51,71
732,072	52,35
732,509	52,5
732,945	52,76
733,38	52,97
733,816	52,91
734,252	53,21
734,688	53,18
735,123	53,25
735,559	53,57
735,994	53,9
736,429	53,66
736,864	54,19
737,299	54,2
737,734	54,6
738,169	54,28
738,604	54,53
739,038	54,61
739,473	54,69
739,907	54,86
740,342	54,87
740,776	54,83
741,21	54,72
741,644	55,32
742,078	55,06
742,512	55,34
742,946	54,73
743,379	55,37
743,813	55,16
744,246	55,43
744,68	55,1
745,113	55,66
745,546	55,62
745,979	55,55
746,412	55,54
746,845	55,17
747,278	55,3
747,711	55,42
748,143	55,45
748,576	55,76
749,008	55,72
749,441	55,84
749,873	55,47
750,305	55,17
750,737	55,15
751,169	55,43
751,601	55,76
752,032	55,34
752,464	55,72
752,896	55,66
753,327	55,65
753,758	55,02
754,19	55,3
754,621	55,26
755,052	55,35
755,483	55,43
755,914	55,42
756,344	55,27
756,775	55,37
757,206	55,74
757,636	55,18
758,066	55,44
758,497	55,6
758,927	55,2
759,357	55,41
759,787	55,4
760,217	54,77
760,647	55,29
761,076	55,44
761,506	55,29
761,935	55,13
762,365	55,34
762,794	55,1
763,223	55,15
763,653	55,31
764,082	55,05
764,51	54,86
764,939	54,85
765,368	55,12
765,797	54,74
766,225	54,74
766,654	54,92
767,082	55,05
767,51	54,79
767,938	54,89
768,367	54,51
768,795	54,52
769,222	54,91
769,65	54,68
770,078	54,71
770,505	54,51
770,933	54,63
771,36	54,28
771,788	54,75
772,215	54,26
772,642	54,68
773,069	54,75
773,496	54,49
773,923	54,55
774,349	54,62
774,776	54,42
775,203	54,31
775,629	54,58
776,055	54,03
776,482	54,57
776,908	54,36
777,334	54,38
777,76	54,56
778,186	53,94
778,611	54,08
779,037	54,07
779,463	54,4
779,888	54,22
780,314	54,4
780,739	53,83
781,164	53,96
781,589	54,43
782,014	54,34
782,439	54,21
782,864	54,39
783,289	54,02
783,713	54,08
784,138	54,05
784,562	54,3
784,987	54,17
785,411	53,7
785,835	54,04
786,259	53,86
786,683	54,07
787,107	54,2
787,531	53,78
787,954	54,07
788,378	54
788,802	54,08
789,225	53,72
789,648	54,02
790,071	54,35
790,495	54,02
790,918	53,52
791,34	54,14
791,763	54
792,186	54,06
792,609	53,65
793,031	54,24
793,454	54,01
793,876	53,95
794,298	53,92
794,721	53,65
795,143	53,91
795,565	53,59
795,986	53,68
796,408	53,91
796,83	54,14
797,252	53,99
797,673	53,82
798,094	54,05
798,516	53,89
798,937	53,51
799,358	54
799,779	53,72
800,2	53,56
800,621	53,66
801,042	54
801,462	53,7
801,883	53,87
802,303	53,72
802,724	53,54
803,144	53,84
803,564	53,57
803,984	53,9
804,404	53,83
804,824	53,7
805,244	53,79
805,664	54,02
806,084	53,76
806,503	53,49
806,923	53,71
807,342	53,73
807,761	53,64
808,18	53,69
808,599	53,46
809,018	53,75
809,437	53,66
809,856	53,71
810,275	53,85
810,693	53,76
811,112	53,5
811,53	54,07
811,949	53,68
812,367	53,57
812,785	53,95
813,203	53,83
813,621	53,76
814,039	53,78
814,457	53,61
814,874	53,65
815,292	54,12
815,709	53,68
816,127	53,47
816,544	53,84
816,961	53,84
817,378	54,05
817,795	53,76
818,212	53,79
818,629	53,71
819,046	53,97
819,462	53,71
819,879	54
820,295	53,46
820,712	53,82
821,128	53,78
821,544	53,43
821,96	53,5
822,376	53,52
822,792	53,51
823,208	53,83
823,624	53,32
824,039	53,68
824,455	53,93
824,87	53,94
825,286	53,58
825,701	53,86
826,116	54,08
826,531	53,67
826,946	53,41
827,361	53,73
827,776	53,87
828,19	53,54
828,605	53,66
829,02	53,36
829,434	53,67
829,848	53,44
830,263	53,57
830,677	53,6
831,091	53,95
831,505	53,62
831,919	53,75
832,332	53,05
832,746	53,56
833,16	53,18
833,573	53,42
833,987	53,37
834,4	53,53
834,813	53,61
835,226	53,6
835,639	53,37
836,052	53,66
836,465	53,69
836,878	53,2
837,29	53,46
837,703	53,54
838,116	53,61
838,528	53,23
838,94	53,28
839,352	53,37
839,765	53,47
840,177	53,29
840,589	53,48
841	53,14
841,412	53,29
841,824	53,3
842,235	53,76
842,647	53,28
843,058	53,64
843,47	53,32
843,881	53,21
844,292	53,36
844,703	53,58
845,114	53,47
845,525	53,56
845,935	53,3
846,346	53,38
846,757	53,31
847,167	53,68
847,577	53,29
847,988	53,57
848,398	53,64
848,808	53,46
849,218	53,47
849,628	53,39
850,038	53,35
850,448	53,58
850,857	53,35
851,267	53,36
851,676	53,72
852,086	53,4
852,495	53,16
852,904	53,33
853,313	53,42
853,722	53,13
854,131	53,33
854,54	53,75
854,949	53,37
855,357	53,34
855,766	53,21
856,174	53,3
856,583	53,49
856,991	53,17
857,399	53,52
857,807	53,24
858,215	53,53
858,623	53,44
859,031	53,54
859,439	53,2
859,846	53,31
860,254	53,41
860,661	53,54
861,069	53,56
861,476	53,43
861,883	53,59
862,29	53,38
862,697	53,48
863,104	53,24
863,511	53,48
863,918	53,27
864,325	53,36
864,731	53,17
865,138	53,55
865,544	53,45
865,95	53,52
866,357	53,38
866,763	53,66
867,169	53,08
867,575	53,39
867,98	53,38
868,386	53,51
868,792	53,29
869,197	53,43
869,603	53,37
870,008	53,13
870,414	53,09
870,819	53,85
871,224	53,29
871,629	53,23
872,034	53,34
872,439	53,3
872,844	53,33
873,248	53,22
873,653	53,14
874,057	53,39
874,462	52,94
874,866	53,42
875,27	53,26
875,674	53,46
876,078	53,15
876,482	53,09
876,886	53,33
877,29	53,04
877,694	53,36
878,097	53,39
878,501	53,56
878,904	53,36
879,308	53,23
879,711	53,2
880,114	53,11
880,517	53,11
880,92	53,11
881,323	53,45
881,726	53,55
882,128	53,32
882,531	53,46
882,934	53,52
883,336	53,09
883,738	53,32
884,141	53,39
884,543	53,39
884,945	53,31
885,347	53,29
885,749	53,26
886,151	53,35
886,552	53,29
886,954	53,3
887,355	53,58
887,757	53,63
888,158	53,12
888,56	53,29
888,961	53,22
889,362	53,35
889,763	53,03
890,164	53,65
890,565	53,5
890,965	53,44
891,366	52,98
891,767	53,39
892,167	53,57
892,567	52,96
892,968	53,49
893,368	53,4
893,768	53,23
894,168	53,3
894,568	53,44
894,968	53,1
895,368	53,11
895,767	53,62
896,167	53,24
896,566	53,15
896,966	53,36
897,365	53,34
897,764	53,13
898,164	53,51
898,563	53,48
898,962	53,43
899,361	53,74
899,759	53,08
900,158	53,4
900,557	53,67
900,955	53,47
901,354	53,64
901,752	53,11
902,15	53,61
902,548	53,29
902,947	53,28
903,345	53,23
903,742	53,58
904,14	53,32
904,538	53,43
904,936	53,57
905,333	53,59
905,731	53,64
906,128	53,37
906,525	53,55
906,923	53,71
907,32	53,25
907,717	53,2
908,114	53,24
908,511	53,18
908,907	53,18
909,304	53,79
909,701	52,83
910,097	53,8
910,494	53,15
910,89	53,14
911,286	53,3
911,682	53,15
912,078	53,34
912,474	53,34
912,87	53,3
913,266	53,32
913,662	52,93
914,058	53,07
914,453	53,39
914,849	53,2
915,244	53,2
915,639	53,28
916,034	53,26
916,43	53,4
916,825	52,71
917,22	53,66
917,614	53,22
918,009	52,78
918,404	53,03
918,798	53,5
919,193	53,16
919,587	53,19
919,982	53,17
920,376	53,5
920,77	53,26
921,164	53,44
921,558	53,06
921,952	52,99
922,346	52,89
922,74	53,23
923,133	53,16
923,527	52,66
923,92	52,99
924,314	53,21
924,707	53,3
925,1	53,15
925,493	53,01
925,886	53,04
926,279	53,67
926,672	53,27
927,065	52,91
927,457	52,77
927,85	53,36
928,243	53,09
928,635	53,19
929,027	53,48
929,42	53,43
929,812	53,12
930,204	53,4
930,596	52,88
930,988	52,92
931,379	52,72
931,771	52,73
932,163	52,9
932,554	52,75
932,946	53,08
933,337	52,48
933,729	53,15
934,12	52,32
934,511	53,31
934,902	52,59
935,293	53,17
935,684	53,22
936,075	52,86
936,465	52,76
936,856	52,19
937,246	52,08
937,637	52,17
938,027	51,76
938,417	52,81
938,808	53,18
939,198	52,35
939,588	52,02
939,978	52,82
940,368	52,57
940,757	52,03
941,147	52,56
941,537	51,96
941,926	52,07
942,315	52,57
942,705	52,62
943,094	52,42
943,483	52,37
943,872	52,31
944,261	52,59
944,65	51,91
945,039	51,95
945,428	52,5
945,816	52,58
946,205	52,25
946,593	52,69
946,982	52,37
947,37	52,39
947,758	52,12
948,146	51,88
948,534	52,58
948,922	51,74
949,31	52,61
949,698	51,76
950,086	52,07
950,473	52,06
950,861	51,39
951,248	51,69
951,636	51,94
952,023	51,3
952,41	51,66
952,797	51,68
953,184	51,38
953,571	51,28
953,958	51,76
954,345	51,29
954,731	51,33
955,118	51,27
955,505	50,7
955,891	51,36
956,277	51,09
956,664	51,13
957,05	51,12
957,436	51,8
957,822	51,09
958,208	51,81
958,594	50,8
958,979	51,3
959,365	51,01
959,751	50,55
960,136	50,96
960,522	50,67
960,907	50,83
961,292	50,73
961,677	50,58
962,062	51
962,447	50,95
962,832	51,18
963,217	50,93
963,602	51,01
963,986	50,81
964,371	50,82
964,756	51,08
965,14	50,76
965,524	50,93
965,908	51,17
966,293	50,41
966,677	50,87
967,061	50,7
967,445	50,39
967,828	49,92
968,212	50,72
968,596	50,62
968,979	50,95
969,363	51,37
969,746	50,94
970,129	51,26
970,513	50,71
970,896	51,58
971,279	51,44
971,662	50,35
972,045	51,24
972,428	50,68
972,81	51,25
973,193	50,9
973,575	50,81
973,958	51
974,34	50,86
974,723	51,01
975,105	50,89
975,487	51,18
975,869	50,72
976,251	50,8
976,633	51,27
977,015	50,97
977,396	51,17
977,778	51,15
978,16	51,02
978,541	50,63
978,922	50,82
979,304	50,84
979,685	51,19
980,066	50,9
980,447	50,99
980,828	50,98
981,209	51,21
981,59	51
981,97	51,02
982,351	50,53
982,732	51,01
983,112	51,24
983,493	50,82
983,873	50,25
984,253	51,04
984,633	51,24
985,013	51,7
985,393	51,26
985,773	50,81
986,153	50,99
986,533	51,01
986,912	51,34
987,292	51,4
987,671	51,34
988,051	51,12
988,43	51,26
988,809	50,92
989,188	51,03
989,567	51,6
989,946	51,48
990,325	50,74
990,704	51,34
991,083	50,78
991,461	51,28
991,84	51,54
992,218	51,95
992,597	50,89
992,975	51,59
993,353	51,13
993,732	51,2
994,11	51,83
994,488	51,33
994,866	50,93
995,243	51,46
995,621	50,97
995,999	50,64
996,376	51,42
996,754	51,5
997,131	52,1
997,509	51,05
997,886	50,85
998,263	51,38
998,64	51,58
999,017	51,06
999,394	51,38
999,771	51,32
1000,148	51,43
1000,524	51,63
1000,901	51,52
1001,277	51,14
1001,654	52,05
1002,03	50,89
1002,406	51,96
1002,783	51,19
1003,159	52,26
1003,535	51,1
1003,911	51,15
1004,286	51,19
1004,662	51,44
1005,038	51,26
1005,414	51,64
1005,789	51,56
1006,164	51,86
1006,54	51,84
1006,915	50,88
1007,29	52,31
1007,665	52,28
1008,04	51,34
1008,415	52,15
1008,79	52,09
1009,165	51,72
1009,54	51,51
1009,914	51,65
1010,289	51,98
1010,663	51,49
1011,038	51,59
1011,412	51,64
1011,786	51
1012,16	51,66
1012,535	51,42
1012,909	52,33
1013,282	51,62
1013,656	51,71
1014,03	52,02
1014,404	51,69
1014,777	52,84
1015,151	51,47
1015,524	52,63
1015,897	52,4
1016,271	52,04
1016,644	51,6
1017,017	51,61
1017,39	51,61
1017,763	52,07
1018,136	52,75
1018,508	52,64
1018,881	51,58
1019,254	52,54
1019,626	52,48
1019,999	52,28
1020,371	51,69
1020,743	51,77
1021,116	52,74
1021,488	52,18
1021,86	52,04
1022,232	52,6
1022,604	51,93
1022,975	51,8
1023,347	52,23
1023,719	52,58
1024,09	51,78
1024,462	51,9
1024,833	51,79
1025,204	52,38
1025,576	52,78
1025,947	52,62
1026,318	52,37
1026,689	52,02
1027,06	52,2
1027,431	52
1027,801	52,63
1028,172	52,67
1028,543	52,36
1028,913	52,61
1029,284	52,44
1029,654	51,84
1030,024	52,14
1030,394	52,56
1030,764	53,49
1031,135	51,79
1031,504	52,33
1031,874	52,07
1032,244	52,57
1032,614	51,55
1032,983	52,47
1033,353	51,62
1033,722	51,94
1034,092	52,35
1034,461	51,86
1034,83	51,8
1035,2	52,98
1035,569	52,83
1035,938	52,31
1036,307	52,38
1036,675	52,98
1037,044	52,24
1037,413	51,67
1037,781	52,06
1038,15	52,14
1038,518	51,68
1038,887	52,75
1039,255	51,78
1039,623	53,02
1039,991	52,64
1040,359	52,17
1040,727	52,07
1041,095	52,43
1041,463	52,85
1041,831	52,68
1042,198	51,83
1042,566	51,99
1042,933	52,4
1043,301	52,2
1043,668	52,17
1044,035	52,14
1044,402	52,65
1044,77	52,99
1045,137	52,66
1045,503	52,7
1045,87	53,94
1046,237	52,37
1046,604	52,62
1046,97	52,42
1047,337	51,88
1047,703	51,84
1048,07	52,93
1048,436	52,46
1048,802	53,22
1049,168	52,29
1049,534	52,14
1049,9	52,35
1050,266	53,26
1050,632	53,63
1050,998	52,84
1051,364	53,84
1051,729	52,36
1052,095	52,98
1052,46	53,23
1052,825	52,89
1053,191	52,87
1053,556	52,25
1053,921	52,43
1054,286	53,49
1054,651	52,77
1055,016	54,04
1055,381	53,37
1055,745	52,73
1056,11	53,97
1056,475	52,86
1056,839	53,68
1057,203	53,2
1057,568	52,94
1057,932	52,67
1058,296	52,72
1058,66	52,94
1059,024	53,68
1059,388	52,94
1059,752	52,63
1060,116	53,41
1060,48	53,87
1060,843	53,12
1061,207	52,34
1061,57	53,87
1061,934	54,25
1062,297	54,19
1062,66	53,65
1063,023	52,63
1063,386	51,53
1063,749	51,74
1064,112	51,83
1064,475	53,5
1064,838	53,06
1065,201	53,61
1065,563	52,66
1065,926	51,91
1066,288	53,69
1066,651	53,26
1067,013	51,87
1067,375	51,63
1067,737	52,78
1068,099	53,72
1068,461	51,66
1068,823	52,85
1069,185	52,66
1069,547	51,19
1069,909	53,32
1070,27	53,32
1070,632	52,72
1070,993	52,75
1071,355	51,8
1071,716	53,25
1072,077	52,07
1072,438	54,16
1072,799	53,02
1073,16	53,16
1073,521	53,73
1073,882	51,53
1074,243	53,54
1074,603	52,83
1074,964	52,57
1075,325	54,28
1075,685	52,5
1076,045	52,62
1076,406	53,69
1076,766	52
1077,126	52,54
1077,486	52,44
1077,846	52,14
1078,206	52,52
1078,566	52,67
1078,925	53,62
1079,285	53,63
1079,645	53,55
1080,004	52,31
1080,364	50,8
1080,723	52,96
1081,082	54,13
1081,442	52,38
1081,801	52,84
1082,16	54,61
1082,519	54,3
1082,878	52,8
1083,237	52,76
1083,595	53,61
1083,954	54,16
1084,313	52,25
1084,671	54,27
1085,03	53,08
1085,388	51,99
1085,746	54,08
1086,104	53,18
1086,463	53,19
1086,821	52,45
1087,179	53,55
1087,537	53,79
1087,894	52,53
1088,252	53,24
1088,61	54,19
1088,967	52,58
1089,325	54,63
1089,682	51,48
1090,04	53,21
1090,397	52,34
1090,754	53,48
1091,111	55,58
1091,469	54,33
1091,826	52,91
1092,182	52,03
1092,539	54,48
1092,896	53,34
1093,253	52,59
1093,609	54,41
1093,966	52,26
1094,322	51,12
1094,679	52,83
1095,035	54,33
1095,391	52,03
1095,748	54,67
1096,104	51,69
1096,46	52,34
1096,816	54,81
1097,171	52,75
1097,527	53,5
1097,883	53,47
1098,239	53,82
1098,594	52,12
1098,95	55,52
1099,305	52,67
1099,66	51,32
1100,016	53,65
1100,371	53,39
1100,726	51,59
1101,081	51,61
1101,436	53,92
1101,791	53,6
1102,146	52,14
1102,5	52,35
1102,855	55,59
1103,21	54,36
1103,564	56,43
1103,918	53,39
1104,273	54,09
1104,627	53,39
1104,981	54,58
1105,335	54,69
1105,69	52,65
1106,043	54,22
1106,397	51,39
1106,751	53,92
1107,105	56,31
1107,459	52,83
1107,812	51,65
1108,166	52,43
1108,519	53,82
1108,873	53,29
1109,226	53,54
1109,579	54,55
1109,932	51,11
1110,285	54,82
1110,638	53,39
1110,991	56,46
1111,344	51,47
1111,697	54,82
1112,05	53,38
1112,402	53,29
1112,755	54,33
1113,107	51,92
1113,46	54,4
1113,812	53,79
1114,164	54,37
1114,517	52,63
1114,869	64,96
1115,221	74,19
1115,573	57,55
1115,924	48,91
