Data from D_3__Relative__8__00078.txt Node

Date: Mon Jan 29 18:16:20 CET 2024
User: diatiterra
Spectrometer: HDX00911
Trigger mode: 0
Integration Time (sec): 6,000000E-3
Scans to average: 2
Nonlinearity correction enabled: false
Boxcar width: 0
Storing dark spectrum: false
XAxis mode: Wavelengths
Number of Pixels in Spectrum: 2068
>>>>>Begin Spectral Data<<<<<
194,468	46,08
195,025	39,82
195,581	56,38
196,138	52,31
196,694	51,15
197,251	41,33
197,807	48,4
198,363	40,36
198,919	39,15
199,474	44,29
200,03	32,72
200,586	39,8
201,141	44,94
201,696	37,37
202,251	42,07
202,806	39,85
203,361	42,11
203,916	50
204,471	33,1
205,025	34,29
205,58	37,63
206,134	42,96
206,688	38,77
207,242	42,52
207,796	40,68
208,35	39,71
208,904	37,29
209,457	37,91
210,011	36,36
210,564	46,18
211,117	38,73
211,67	39,79
212,223	40,07
212,776	45,69
213,329	32,99
213,881	41,79
214,434	42,07
214,986	40,4
215,538	42,86
216,09	39,34
216,642	45,19
217,194	37,09
217,746	43,43
218,297	36,58
218,849	37,69
219,4	47,55
219,951	49,82
220,502	41,81
221,053	38,24
221,604	44,63
222,155	48,97
222,705	46,15
223,256	41,37
223,806	45,24
224,356	44,2
224,906	39,26
225,456	41,03
226,006	40,6
226,556	46,72
227,106	43,01
227,655	41,46
228,204	41,45
228,754	44,83
229,303	42,37
229,852	45,42
230,401	43,37
230,949	52,14
231,498	49,63
232,047	45,45
232,595	45,04
233,143	51,89
233,691	48,8
234,239	41,79
234,787	42,66
235,335	45,58
235,883	42,29
236,43	44,07
236,978	46,91
237,525	42,16
238,072	40,96
238,619	39,04
239,166	43,1
239,713	45,35
240,26	44,57
240,806	42,91
241,353	45,23
241,899	44,01
242,445	47,9
242,991	43,9
243,537	49,17
244,083	36,73
244,629	46,28
245,174	47,39
245,72	42,14
246,265	48,41
246,81	40,51
247,355	37,87
247,9	43,6
248,445	50,34
248,99	44,29
249,534	40,51
250,079	42,91
250,623	41,36
251,168	42,62
251,712	47,87
252,256	44,85
252,8	45,83
253,343	43,95
253,887	41,5
254,43	48,33
254,974	45,8
255,517	42,28
256,06	42,12
256,603	46,04
257,146	41,08
257,689	41,14
258,232	45,21
258,774	45,02
259,317	45,42
259,859	45,76
260,401	46,59
260,943	41,79
261,485	41,13
262,027	44,14
262,569	49,62
263,11	55,23
263,652	45,59
264,193	45,71
264,734	47,22
265,275	39,36
265,816	42,09
266,357	44,96
266,898	37,54
267,438	40,78
267,979	43,64
268,519	41,88
269,059	43,97
269,6	41,75
270,14	38,61
270,68	44,44
271,219	45,26
271,759	48,88
272,298	41,09
272,838	48,06
273,377	38,52
273,916	43,32
274,455	45,98
274,994	50
275,533	43,69
276,072	39,1
276,61	45,39
277,149	33,33
277,687	42,35
278,225	43,49
278,763	40,22
279,301	42,26
279,839	46,01
280,377	40,51
280,914	42,12
281,452	52,03
281,989	45,05
282,526	43,01
283,064	34,72
283,601	45,08
284,137	44,16
284,674	48,3
285,211	37,77
285,747	40
286,284	38,6
286,82	41,49
287,356	39,18
287,892	42,11
288,428	39,66
288,964	40,79
289,5	48,3
290,035	44,6
290,571	49,63
291,106	40
291,641	41,38
292,176	40,98
292,711	45,52
293,246	42,6
293,781	42,38
294,315	42,28
294,85	53,65
295,384	43,7
295,918	38,68
296,453	42,76
296,987	40,69
297,52	36,64
298,054	37,87
298,588	44,88
299,121	38,83
299,655	44,21
300,188	48,29
300,721	40,34
301,254	38,08
301,787	32,93
302,32	50,38
302,853	43,21
303,385	35,53
303,918	42,11
304,45	44,4
304,982	45,02
305,514	43,17
306,046	43,51
306,578	40,36
307,11	39,41
307,641	42,91
308,173	39,41
308,704	39,08
309,236	47,94
309,767	35
310,298	36,24
310,829	44,87
311,359	41,99
311,89	43,42
312,421	46,38
312,951	42,18
313,481	42,17
314,012	43,96
314,542	41,1
315,072	40,73
315,601	44,13
316,131	35,04
316,661	41,25
317,19	35,23
317,72	41,39
318,249	36,82
318,778	46,01
319,307	43,58
319,836	39,93
320,365	37,79
320,893	45,39
321,422	38,43
321,95	44,81
322,479	44,29
323,007	46,01
323,535	47,17
324,063	45,9
324,591	34,67
325,118	42,66
325,646	46,54
326,173	55
326,701	37,45
327,228	42,17
327,755	40,14
328,282	41,89
328,809	34,81
329,336	43,25
329,862	40
330,389	36,86
330,915	42,55
331,441	38,98
331,968	40,55
332,494	40,8
333,02	35,4
333,545	36,46
334,071	37,67
334,597	39,53
335,122	33,44
335,648	44,32
336,173	39,27
336,698	40,41
337,223	42,32
337,748	36,49
338,272	38,61
338,797	44,34
339,322	34,55
339,846	28,91
340,37	30,4
340,894	43,49
341,419	34,56
341,942	45,97
342,466	41,3
342,99	36
343,514	33,44
344,037	44,26
344,56	41,38
345,084	35,33
345,607	39,21
346,13	32,92
346,653	39,94
347,175	42,9
347,698	33,04
348,221	35,47
348,743	34,69
349,265	37,5
349,787	35,14
350,309	42,42
350,831	38,51
351,353	38,89
351,875	39,04
352,397	39,94
352,918	39,83
353,439	40,92
353,961	36,34
354,482	33,99
355,003	40,48
355,524	39,8
356,044	41,69
356,565	39,4
357,086	33,59
357,606	36,87
358,126	34,31
358,646	39,8
359,167	37,35
359,687	38,21
360,206	36,63
360,726	34,31
361,246	41,93
361,765	32,02
362,285	34,83
362,804	33,56
363,323	34,4
363,842	39,76
364,361	36,36
364,88	35,65
365,398	34
365,917	37,99
366,435	38,41
366,954	35,87
367,472	39,23
367,99	40,86
368,508	34,77
369,026	36,63
369,544	36,36
370,061	36,03
370,579	33,96
371,096	31,75
371,613	32,11
372,131	36,97
372,648	36,1
373,165	37,09
373,681	33,98
374,198	34,92
374,715	38,02
375,231	33,39
375,747	39,17
376,264	34,19
376,78	35,25
377,296	33,07
377,812	32,79
378,327	31,85
378,843	33,68
379,359	32,46
379,874	33,47
380,389	33,15
380,905	33,42
381,42	31,72
381,935	32,8
382,449	33,8
382,964	34,23
383,479	34,48
383,993	31,97
384,508	32,55
385,022	32,91
385,536	30,09
386,05	29,91
386,564	30,12
387,078	28,27
387,592	29,58
388,105	31,37
388,619	29,89
389,132	29,09
389,645	30,26
390,158	28,08
390,671	28,74
391,184	28,47
391,697	26,68
392,21	27,33
392,722	28,41
393,235	27,74
393,747	27,03
394,259	27,29
394,771	25,66
395,283	24,92
395,795	26,32
396,307	25,17
396,818	25,57
397,33	24,65
397,841	25,95
398,353	25,28
398,864	23,57
399,375	22,6
399,886	22,02
400,397	21,99
400,907	23,61
401,418	20,28
401,928	21,67
402,439	22,27
402,949	21,21
403,459	20,63
403,969	20,09
404,479	19,93
404,989	19,73
405,498	19,64
406,008	17,64
406,517	17,53
407,027	18,27
407,536	15,65
408,045	15,79
408,554	15,23
409,063	14,25
409,572	14,78
410,08	15,6
410,589	14,18
411,097	13,4
411,606	14,17
412,114	13,98
412,622	12,74
413,13	12,99
413,638	12,43
414,145	12,14
414,653	12,09
415,16	11,66
415,668	10,96
416,175	10,92
416,682	10,64
417,189	9,85
417,696	10,78
418,203	10,29
418,71	9,76
419,216	9,74
419,723	9,91
420,229	9,58
420,735	9,16
421,242	9,52
421,748	10,06
422,254	9,47
422,759	10,06
423,265	9,45
423,771	8,92
424,276	9,34
424,781	9,02
425,287	9,13
425,792	8,8
426,297	9,44
426,802	8,81
427,306	8,78
427,811	8,61
428,316	8,67
428,82	9,01
429,324	8,61
429,829	8,79
430,333	8,43
430,837	8,6
431,34	8,09
431,844	8,01
432,348	8,71
432,851	8,53
433,355	8,07
433,858	7,74
434,361	8,41
434,864	7,93
435,367	8,38
435,87	8,18
436,373	8,12
436,876	8,1
437,378	7,95
437,88	8,51
438,383	8,17
438,885	8,51
439,387	8,08
439,889	8,31
440,391	8,27
440,892	8,17
441,394	8,31
441,896	7,88
442,397	8,06
442,898	8,01
443,399	8,11
443,9	8,14
444,401	8,21
444,902	8,16
445,403	7,66
445,903	7,92
446,404	7,97
446,904	8,04
447,405	8,75
447,905	8,45
448,405	8,2
448,905	8,4
449,404	8,63
449,904	7,99
450,404	8,46
450,903	8,38
451,403	8,35
451,902	8,84
452,401	8,52
452,9	8,07
453,399	8,27
453,898	8,67
454,396	8,28
454,895	8,72
455,393	8,3
455,892	8,46
456,39	8,82
456,888	8,35
457,386	8,55
457,884	8,37
458,382	8,62
458,879	8,46
459,377	8,83
459,874	8,65
460,372	8,84
460,869	8,78
461,366	8,51
461,863	8,69
462,36	8,89
462,857	8,99
463,353	8,68
463,85	8,96
464,346	8,8
464,843	8,98
465,339	8,63
465,835	8,58
466,331	8,6
466,827	8,49
467,323	8,35
467,818	8,68
468,314	8,6
468,809	8,46
469,305	8,75
469,8	8,97
470,295	9,01
470,79	9,17
471,285	8,83
471,78	8,68
472,274	8,53
472,769	9
473,263	8,79
473,758	9,11
474,252	8,67
474,746	8,84
475,24	8,46
475,734	8,78
476,228	8,89
476,721	8,79
477,215	8,98
477,708	8,72
478,202	8,93
478,695	8,7
479,188	8,62
479,681	8,8
480,174	8,9
480,667	8,68
481,159	8,65
481,652	9,02
482,144	8,73
482,637	9,03
483,129	8,8
483,621	8,79
484,113	9,19
484,605	9
485,097	8,99
485,588	9,21
486,08	9,4
486,571	9,16
487,063	9,06
487,554	9,08
488,045	9,23
488,536	9,11
489,027	8,97
489,518	9,15
490,008	9,2
490,499	9,29
490,989	9,46
491,48	9,44
491,97	9,52
492,46	9,22
492,95	9,46
493,44	9,26
493,93	9,45
494,419	9,61
494,909	9,5
495,398	9,54
495,888	9,58
496,377	9,87
496,866	9,83
497,355	9,94
497,844	9,99
498,333	10,08
498,821	9,9
499,31	10,51
499,798	10,22
500,287	10,39
500,775	10,53
501,263	10,78
501,751	10,79
502,239	10,83
502,727	11,03
503,215	11,01
503,702	10,86
504,19	11,43
504,677	11,28
505,164	11,67
505,651	11,85
506,139	11,96
506,625	12,4
507,112	12,29
507,599	12,62
508,086	12,4
508,572	12,53
509,058	13,13
509,545	13,35
510,031	13,28
510,517	13,73
511,003	13,43
511,489	14,21
511,974	14,66
512,46	14,36
512,946	14,92
513,431	14,72
513,916	15,47
514,401	15,56
514,887	15,64
515,371	15,94
515,856	16,44
516,341	16,55
516,826	17,17
517,31	17,46
517,795	17,53
518,279	17,58
518,763	18,31
519,247	18,48
519,731	18,79
520,215	18,82
520,699	19,81
521,182	19,6
521,666	19,93
522,149	20,64
522,633	20,32
523,116	21,06
523,599	21,3
524,082	21,55
524,565	21,73
525,048	21,85
525,53	22,38
526,013	22,39
526,495	22,67
526,978	22,93
527,46	23,29
527,942	23,25
528,424	23,56
528,906	24,31
529,388	24,1
529,87	24,72
530,351	24,4
530,833	24,84
531,314	25,08
531,795	24,86
532,277	24,91
532,758	25,66
533,238	25,78
533,719	25,88
534,2	26,09
534,681	25,99
535,161	26,14
535,642	26,33
536,122	26,15
536,602	26,32
537,082	26,28
537,562	26,83
538,042	26,58
538,522	26,84
539,001	26,86
539,481	26,97
539,96	26,56
540,44	26,81
540,919	27,08
541,398	26,97
541,877	27,05
542,356	26,95
542,835	27,13
543,313	27,34
543,792	27,15
544,27	27,19
544,749	27,43
545,227	27,25
545,705	27,35
546,183	27,4
546,661	27,51
547,139	27,12
547,616	27,67
548,094	27,74
548,571	27,78
549,049	27,61
549,526	27,53
550,003	27,61
550,48	27,76
550,957	27,44
551,434	27,56
551,911	28
552,387	27,52
552,864	27,92
553,34	27,94
553,817	28,01
554,293	27,35
554,769	27,84
555,245	27,4
555,721	27,81
556,197	27,64
556,672	27,83
557,148	27,75
557,623	27,67
558,099	27,78
558,574	27,83
559,049	27,84
559,524	27,57
559,999	27,52
560,474	27,24
560,948	27,49
561,423	27,34
561,897	27,34
562,372	27,32
562,846	26,91
563,32	26,96
563,794	26,96
564,268	26,89
564,742	26,6
565,216	26,64
565,69	26,04
566,163	26,36
566,636	26,38
567,11	26,27
567,583	25,65
568,056	25,71
568,529	25,73
569,002	25,79
569,475	25,34
569,947	24,89
570,42	24,87
570,892	24,71
571,365	24,75
571,837	24,74
572,309	24,44
572,781	23,89
573,253	23,71
573,725	23,67
574,197	23,64
574,668	23,21
575,14	23,24
575,611	23,11
576,082	23,09
576,554	22,96
577,025	22,91
577,496	22,37
577,967	22,36
578,437	22,54
578,908	22,24
579,379	22,16
579,849	21,99
580,319	21,65
580,79	21,79
581,26	21,67
581,73	21,53
582,2	21,31
582,669	21,32
583,139	21,4
583,609	20,91
584,078	21,12
584,548	20,9
585,017	20,54
585,486	20,39
585,955	20,64
586,424	20,47
586,893	20,37
587,362	20,15
587,83	20,22
588,299	20,06
588,767	19,96
589,236	19,83
589,704	19,93
590,172	19,85
590,64	19,67
591,108	19,59
591,576	19,92
592,043	19,29
592,511	19,52
592,978	19,36
593,446	19,36
593,913	19,09
594,38	19,41
594,847	19,34
595,314	19,21
595,781	19,04
596,248	19,05
596,715	18,98
597,181	19,11
597,647	18,91
598,114	18,85
598,58	18,8
599,046	18,91
599,512	18,73
599,978	18,96
600,444	18,76
600,91	18,78
601,375	18,93
601,841	18,62
602,306	18,84
602,771	18,73
603,236	18,57
603,702	18,7
604,167	18,3
604,631	18,52
605,096	18,42
605,561	18,2
606,025	18,25
606,49	18,25
606,954	18,26
607,418	18,16
607,882	17,88
608,347	17,73
608,81	17,69
609,274	17,64
609,738	17,54
610,202	17,68
610,665	17,52
611,128	17,48
611,592	17,26
612,055	17,09
612,518	17,1
612,981	16,69
613,444	16,77
613,907	16,6
614,369	16,58
614,832	16,61
615,294	16,57
615,757	16,31
616,219	16,3
616,681	16,26
617,143	16,13
617,605	15,99
618,067	15,87
618,529	15,93
618,99	15,87
619,452	16
619,913	15,78
620,375	15,66
620,836	15,66
621,297	15,56
621,758	15,52
622,219	15,48
622,68	15,44
623,14	15,44
623,601	15,32
624,061	15,33
624,522	15,3
624,982	15,19
625,442	15,26
625,902	15,34
626,362	14,96
626,822	15,09
627,282	15,02
627,742	14,98
628,201	15,31
628,661	15,02
629,12	15,01
629,579	14,97
630,038	14,91
630,497	14,93
630,956	14,99
631,415	15,02
631,874	14,78
632,332	14,72
632,791	14,7
633,249	14,75
633,708	14,64
634,166	14,64
634,624	14,58
635,082	14,6
635,54	14,48
635,998	14,42
636,455	14,41
636,913	14,21
637,37	14,27
637,828	14,14
638,285	13,9
638,742	13,67
639,199	13,65
639,656	13,65
640,113	13,69
640,57	13,34
641,027	13,44
641,483	13,26
641,94	12,94
642,396	12,94
642,852	12,82
643,309	12,96
643,765	12,41
644,221	12,41
644,676	12,4
645,132	12,28
645,588	12,26
646,043	12,2
646,499	11,98
646,954	11,84
647,409	11,67
647,864	11,66
648,319	11,46
648,774	11,35
649,229	11,49
649,684	11,29
650,139	11,16
650,593	11,17
651,047	11,09
651,502	11,07
651,956	11,02
652,41	11,2
652,864	10,99
653,318	10,96
653,772	10,72
654,225	10,8
654,679	10,73
655,133	10,64
655,586	10,77
656,039	10,64
656,492	10,48
656,946	10,49
657,399	10,29
657,851	10,37
658,304	10,21
658,757	10,33
659,209	10,1
659,662	10,04
660,114	9,89
660,567	9,88
661,019	9,78
661,471	9,83
661,923	9,7
662,375	9,55
662,826	9,51
663,278	9,45
663,73	9,26
664,181	9,33
664,632	9,37
665,084	9,35
665,535	9,24
665,986	9,19
666,437	9,14
666,888	9,14
667,338	9,08
667,789	9,18
668,24	9,19
668,69	9,1
669,14	9,18
669,591	9,16
670,041	9,23
670,491	9,16
670,941	9,22
671,391	9,1
671,84	9,21
672,29	9,23
672,74	9,29
673,189	9,35
673,638	9,51
674,088	9,52
674,537	9,45
674,986	9,54
675,435	9,69
675,883	9,66
676,332	9,84
676,781	9,9
677,229	10,03
677,678	10,16
678,126	10,21
678,574	10,27
679,022	10,45
679,47	10,51
679,918	10,51
680,366	10,68
680,814	10,65
681,261	10,97
681,709	10,93
682,156	11,07
682,604	11,18
683,051	11,49
683,498	11,45
683,945	11,6
684,392	11,61
684,839	11,77
685,286	12,03
685,732	12,11
686,179	12,27
686,625	12,38
687,071	12,6
687,518	12,68
687,964	12,95
688,41	13,09
688,856	13,37
689,301	13,71
689,747	13,86
690,193	14,14
690,638	14,39
691,084	14,94
691,529	15,24
691,974	15,43
692,419	16,13
692,864	16,4
693,309	16,84
693,754	17,24
694,199	17,85
694,643	18,22
695,088	18,65
695,532	19,22
695,977	19,74
696,421	20,2
696,865	20,81
697,309	21,34
697,753	21,71
698,197	22,18
698,64	22,88
699,084	23,21
699,527	23,67
699,971	24,25
700,414	24,86
700,857	25,38
701,3	25,75
701,743	26,1
702,186	26,62
702,629	27,29
703,072	27,5
703,515	27,88
703,957	28,37
704,399	28,83
704,842	29,16
705,284	29,78
705,726	30,07
706,168	30,52
706,61	30,93
707,052	31,19
707,494	31,61
707,935	32,17
708,377	32,54
708,818	32,82
709,26	32,91
709,701	33,44
710,142	33,71
710,583	33,94
711,024	34,46
711,465	34,64
711,905	35,16
712,346	35,22
712,787	35,61
713,227	36,02
713,667	36,5
714,108	36,47
714,548	36,96
714,988	37,16
715,428	37,31
715,868	37,6
716,307	37,89
716,747	38,47
717,186	38,52
717,626	38,78
718,065	38,77
718,504	39,2
718,944	39,4
719,383	39,84
719,822	39,85
720,261	40,17
720,699	40,53
721,138	40,81
721,576	40,96
722,015	41
722,453	41,07
722,892	41,55
723,33	41,47
723,768	41,98
724,206	41,72
724,644	42,21
725,081	42,13
725,519	42,3
725,957	42,47
726,394	42,68
726,832	42,91
727,269	42,96
727,706	43,14
728,143	43,04
728,58	43,43
729,017	43,4
729,454	43,44
729,89	43,38
730,327	43,44
730,764	43,52
731,2	43,8
731,636	43,96
732,072	43,95
732,509	44,28
732,945	44,17
733,38	44,27
733,816	44,35
734,252	44,41
734,688	44,47
735,123	44,22
735,559	44,44
735,994	44,5
736,429	44,53
736,864	44,81
737,299	44,74
737,734	45,01
738,169	44,73
738,604	44,92
739,038	44,96
739,473	44,79
739,907	45,1
740,342	44,87
740,776	44,62
741,21	44,95
741,644	44,9
742,078	44,96
742,512	45,36
742,946	44,83
743,379	44,91
743,813	44,7
744,246	45,07
744,68	44,74
745,113	44,92
745,546	45,02
745,979	45,01
746,412	45,1
746,845	44,79
747,278	44,87
747,711	44,68
748,143	44,65
748,576	44,74
749,008	44,65
749,441	44,68
749,873	44,59
750,305	44,58
750,737	44,51
751,169	44,4
751,601	44,55
752,032	44,41
752,464	44,53
752,896	44,55
753,327	44,53
753,758	44,23
754,19	44,27
754,621	44,66
755,052	44,13
755,483	44,29
755,914	44,34
756,344	44,02
756,775	44,15
757,206	44,17
757,636	43,91
758,066	44,15
758,497	44,2
758,927	43,94
759,357	44,01
759,787	43,92
760,217	43,94
760,647	43,77
761,076	44,02
761,506	44
761,935	43,72
762,365	43,41
762,794	43,29
763,223	43,45
763,653	43,65
764,082	43,53
764,51	43,42
764,939	43,48
765,368	43,41
765,797	43,35
766,225	43,52
766,654	43,4
767,082	43,51
767,51	43,33
767,938	43,4
768,367	43,11
768,795	43,12
769,222	43,33
769,65	43,02
770,078	42,87
770,505	43,17
770,933	43,13
771,36	42,65
771,788	43,3
772,215	42,96
772,642	43,25
773,069	43,15
773,496	42,93
773,923	42,88
774,349	42,86
774,776	42,64
775,203	42,63
775,629	42,77
776,055	42,6
776,482	42,85
776,908	42,65
777,334	42,67
777,76	42,72
778,186	42,65
778,611	42,36
779,037	42,82
779,463	42,51
779,888	42,64
780,314	42,51
780,739	42,63
781,164	42,54
781,589	42,81
782,014	42,96
782,439	42,84
782,864	42,63
783,289	42,27
783,713	42,52
784,138	42,51
784,562	42,59
784,987	42,64
785,411	42,24
785,835	42,44
786,259	42,11
786,683	42,42
787,107	42,45
787,531	42,19
787,954	42,2
788,378	42,18
788,802	42,36
789,225	42,72
789,648	42,4
790,071	42,31
790,495	42,61
790,918	42,23
791,34	42,21
791,763	42,41
792,186	42,39
792,609	42,16
793,031	42,11
793,454	42,05
793,876	42,3
794,298	42,36
794,721	41,98
795,143	42,19
795,565	42,02
795,986	42,32
796,408	42,27
796,83	42,02
797,252	42,26
797,673	42,19
798,094	42,39
798,516	42,02
798,937	42,02
799,358	41,77
799,779	42,1
800,2	42,33
800,621	41,76
801,042	42,24
801,462	41,85
801,883	42,23
802,303	41,89
802,724	41,88
803,144	41,97
803,564	42,14
803,984	42,1
804,404	41,87
804,824	41,84
805,244	41,96
805,664	41,87
806,084	42,04
806,503	41,83
806,923	42
807,342	41,95
807,761	42
808,18	41,95
808,599	41,74
809,018	41,87
809,437	41,87
809,856	41,73
810,275	41,89
810,693	41,85
811,112	42,04
811,53	42
811,949	41,82
812,367	41,68
812,785	41,61
813,203	41,69
813,621	41,91
814,039	41,84
814,457	42,14
814,874	41,82
815,292	41,91
815,709	41,68
816,127	41,68
816,544	41,77
816,961	41,95
817,378	41,9
817,795	41,63
818,212	41,91
818,629	42,06
819,046	42,05
819,462	41,62
819,879	41,84
820,295	41,74
820,712	41,77
821,128	41,83
821,544	41,4
821,96	41,91
822,376	41,5
822,792	41,51
823,208	41,72
823,624	41,58
824,039	41,73
824,455	41,91
824,87	42,03
825,286	41,54
825,701	41,58
826,116	41,76
826,531	41,62
826,946	41,75
827,361	41,93
827,776	41,66
828,19	41,63
828,605	41,48
829,02	41,82
829,434	41,58
829,848	41,34
830,263	41,79
830,677	41,46
831,091	41,68
831,505	41,4
831,919	41,85
832,332	41,71
832,746	41,4
833,16	41,27
833,573	41,45
833,987	41,58
834,4	41,57
834,813	41,68
835,226	41,43
835,639	41,68
836,052	41,63
836,465	41,81
836,878	41,56
837,29	41,44
837,703	41,54
838,116	41,5
838,528	41,48
838,94	41,24
839,352	41,51
839,765	41,36
840,177	41,65
840,589	41,31
841	41,36
841,412	41,5
841,824	41,35
842,235	41,77
842,647	41,27
843,058	41,63
843,47	41,32
843,881	41,35
844,292	41,42
844,703	41,34
845,114	41,27
845,525	41,51
845,935	41,34
846,346	40,93
846,757	41,32
847,167	41,55
847,577	41,21
847,988	41,47
848,398	41,41
848,808	41,28
849,218	41,61
849,628	41,33
850,038	41,42
850,448	41,23
850,857	41,37
851,267	41,52
851,676	41,3
852,086	41,23
852,495	41,21
852,904	41,47
853,313	41,37
853,722	41,25
854,131	41,35
854,54	41,28
854,949	41,36
855,357	41,21
855,766	41,31
856,174	41,21
856,583	41,47
856,991	41,17
857,399	41,29
857,807	41,16
858,215	41,13
858,623	41,36
859,031	41,38
859,439	41,52
859,846	41,2
860,254	41,21
860,661	41,31
861,069	41,41
861,476	41,24
861,883	41,3
862,29	41,28
862,697	41,6
863,104	41,09
863,511	41,15
863,918	41,45
864,325	41,02
864,731	41,37
865,138	41,3
865,544	41,53
865,95	41,19
866,357	41,45
866,763	41,29
867,169	41,09
867,575	41,04
867,98	41,04
868,386	41,2
868,792	41,75
869,197	41,39
869,603	40,92
870,008	41,29
870,414	41,04
870,819	41,53
871,224	41,03
871,629	41,26
872,034	41,21
872,439	41,48
872,844	41,1
873,248	40,89
873,653	41,33
874,057	41,39
874,462	41,34
874,866	41,25
875,27	41,21
875,674	41,37
876,078	41
876,482	41,41
876,886	41,09
877,29	41,19
877,694	41,34
878,097	41,45
878,501	41,14
878,904	40,99
879,308	41,39
879,711	41,28
880,114	41,1
880,517	41,08
880,92	41,14
881,323	41,01
881,726	41,34
882,128	41,35
882,531	41,33
882,934	41,44
883,336	41,15
883,738	40,99
884,141	41,24
884,543	40,88
884,945	41,03
885,347	41,46
885,749	41,13
886,151	41,35
886,552	41,55
886,954	40,92
887,355	41,42
887,757	41,32
888,158	40,99
888,56	41,16
888,961	40,96
889,362	41,17
889,763	41,15
890,164	41,27
890,565	40,94
890,965	40,96
891,366	40,85
891,767	41,26
892,167	41,45
892,567	41,05
892,968	41,16
893,368	41,15
893,768	41,1
894,168	41,14
894,568	41,19
894,968	41,02
895,368	41,16
895,767	41,23
896,167	40,92
896,566	41,17
896,966	40,88
897,365	41,17
897,764	41,13
898,164	41,2
898,563	40,91
898,962	40,92
899,361	41,03
899,759	41,09
900,158	41,31
900,557	41,44
900,955	41,22
901,354	41,21
901,752	40,84
902,15	41,46
902,548	41,45
902,947	40,77
903,345	41,21
903,742	41,13
904,14	41,22
904,538	41,4
904,936	41,08
905,333	41,05
905,731	41,25
906,128	41,34
906,525	41,08
906,923	41,21
907,32	41,39
907,717	41,2
908,114	40,94
908,511	41,29
908,907	41
909,304	41,22
909,701	40,86
910,097	41,46
910,494	41,19
910,89	41,15
911,286	41,18
911,682	41,02
912,078	41,39
912,474	40,87
912,87	41,05
913,266	41,21
913,662	40,98
914,058	40,74
914,453	41,04
914,849	41,3
915,244	41,07
915,639	41,21
916,034	40,99
916,43	40,87
916,825	41,05
917,22	41,06
917,614	41,14
918,009	41,06
918,404	41,2
918,798	41,42
919,193	40,83
919,587	40,97
919,982	41,21
920,376	40,75
920,77	41,17
921,164	41,17
921,558	41,04
921,952	41,11
922,346	41,11
922,74	41,13
923,133	41,4
923,527	40,65
923,92	41,11
924,314	41
924,707	41,39
925,1	40,77
925,493	40,88
925,886	41,03
926,279	41,15
926,672	40,9
927,065	41,03
927,457	40,92
927,85	41,15
928,243	40,86
928,635	41,01
929,027	40,66
929,42	41,16
929,812	40,98
930,204	40,97
930,596	40,96
930,988	41,12
931,379	40,69
931,771	41,09
932,163	40,9
932,554	40,66
932,946	41,12
933,337	40,85
933,729	41,26
934,12	40,73
934,511	41,02
934,902	40,44
935,293	40,81
935,684	41,01
936,075	40,78
936,465	40,91
936,856	40,81
937,246	41,21
937,637	40,94
938,027	40,49
938,417	41,31
938,808	40,91
939,198	40,81
939,588	40,84
939,978	40,6
940,368	40,76
940,757	40,84
941,147	40,65
941,537	40,77
941,926	41,06
942,315	40,95
942,705	39,94
943,094	40,77
943,483	40,27
943,872	40,67
944,261	40,98
944,65	40,13
945,039	40,58
945,428	40,58
945,816	40,4
946,205	40,95
946,593	40,57
946,982	40,36
947,37	40,48
947,758	40,83
948,146	40,48
948,534	40,99
948,922	40,64
949,31	40,74
949,698	40,52
950,086	40,57
950,473	40,19
950,861	39,89
951,248	40,07
951,636	40,76
952,023	40,5
952,41	39,97
952,797	40,06
953,184	40,18
953,571	39,75
953,958	40,56
954,345	39,46
954,731	39,81
955,118	39,81
955,505	40,27
955,891	40,37
956,277	40,22
956,664	40,22
957,05	40,07
957,436	40,09
957,822	40,41
958,208	39,72
958,594	39,85
958,979	39,97
959,365	40,57
959,751	39,48
960,136	40,13
960,522	40,13
960,907	40,12
961,292	39,37
961,677	39,86
962,062	39,72
962,447	39,76
962,832	39,68
963,217	40,07
963,602	40,06
963,986	40,13
964,371	39,8
964,756	39,62
965,14	40,08
965,524	39,99
965,908	40,13
966,293	40,13
966,677	40,55
967,061	39,85
967,445	39,58
967,828	39,76
968,212	40,55
968,596	39,87
968,979	40,23
969,363	39,9
969,746	39,89
970,129	40,17
970,513	39,7
970,896	40,16
971,279	39,91
971,662	39,65
972,045	40,13
972,428	39,55
972,81	39,92
973,193	40,08
973,575	39,9
973,958	40,12
974,34	39,95
974,723	40,36
975,105	40,08
975,487	39,89
975,869	39,67
976,251	39,97
976,633	40,19
977,015	40,32
977,396	39,65
977,778	40,67
978,16	39,81
978,541	40,05
978,922	40,14
979,304	40,51
979,685	40,04
980,066	40,26
980,447	40,25
980,828	39,65
981,209	39,69
981,59	40,11
981,97	40,29
982,351	39,87
982,732	39,81
983,112	40,17
983,493	40,12
983,873	39,57
984,253	40,12
984,633	40,01
985,013	40,15
985,393	40,22
985,773	39,54
986,153	39,82
986,533	39,86
986,912	40,42
987,292	39,97
987,671	39,99
988,051	39,95
988,43	39,79
988,809	40,16
989,188	40,4
989,567	40,65
989,946	40,32
990,325	40,21
990,704	40,51
991,083	40,27
991,461	40,42
991,84	40,09
992,218	40,27
992,597	39,94
992,975	40,17
993,353	39,88
993,732	40,11
994,11	40,21
994,488	40,4
994,866	40,68
995,243	40,5
995,621	40,07
995,999	40,03
996,376	40,3
996,754	40,36
997,131	40,6
997,509	40,26
997,886	40,45
998,263	40,13
998,64	40,16
999,017	39,84
999,394	40,61
999,771	40,08
1000,148	40,46
1000,524	40,04
1000,901	39,83
1001,277	40,58
1001,654	40,48
1002,03	39,81
1002,406	40,07
1002,783	40,39
1003,159	40,3
1003,535	40,02
1003,911	40,24
1004,286	39,7
1004,662	40,66
1005,038	40,28
1005,414	40,56
1005,789	40,41
1006,164	40,33
1006,54	40,67
1006,915	40,13
1007,29	40,49
1007,665	40,22
1008,04	40,47
1008,415	40,66
1008,79	39,91
1009,165	40,68
1009,54	39,7
1009,914	40,63
1010,289	40,61
1010,663	40,48
1011,038	40,08
1011,412	40,75
1011,786	39,86
1012,16	40,79
1012,535	39,99
1012,909	40,9
1013,282	40,47
1013,656	39,81
1014,03	40,91
1014,404	40,68
1014,777	40,58
1015,151	40,79
1015,524	41,03
1015,897	41,29
1016,271	40,52
1016,644	40,84
1017,017	40,51
1017,39	40,29
1017,763	40,27
1018,136	40,72
1018,508	40,53
1018,881	40,65
1019,254	40,89
1019,626	40,61
1019,999	41,15
1020,371	40,55
1020,743	40,59
1021,116	40,44
1021,488	40,07
1021,86	40,07
1022,232	41,06
1022,604	40,68
1022,975	40,63
1023,347	40,39
1023,719	40,34
1024,09	40,29
1024,462	39,75
1024,833	40,44
1025,204	40,44
1025,576	40,84
1025,947	40,97
1026,318	40,24
1026,689	40,66
1027,06	41,03
1027,431	40,23
1027,801	41,01
1028,172	40,91
1028,543	40,78
1028,913	41,3
1029,284	40,49
1029,654	40,14
1030,024	40,24
1030,394	41,46
1030,764	41,24
1031,135	40,83
1031,504	40,69
1031,874	40,64
1032,244	40,14
1032,614	40,31
1032,983	40,5
1033,353	41,11
1033,722	40,53
1034,092	40,8
1034,461	40,64
1034,83	40,61
1035,2	39,54
1035,569	40,41
1035,938	40,93
1036,307	40,71
1036,675	40,76
1037,044	40,98
1037,413	40,92
1037,781	39,88
1038,15	40,6
1038,518	40,8
1038,887	40,89
1039,255	40,24
1039,623	40,55
1039,991	40,81
1040,359	40,17
1040,727	40,64
1041,095	40,35
1041,463	40,71
1041,831	40,22
1042,198	40,72
1042,566	40,14
1042,933	40,08
1043,301	40,6
1043,668	40,48
1044,035	39,61
1044,402	41
1044,77	41,26
1045,137	40,78
1045,503	40,54
1045,87	41,42
1046,237	39,83
1046,604	40,62
1046,97	41,59
1047,337	41,31
1047,703	40,86
1048,07	40,94
1048,436	41,41
1048,802	40,76
1049,168	40,26
1049,534	40,96
1049,9	40,94
1050,266	41,26
1050,632	40,77
1050,998	40,92
1051,364	40,97
1051,729	41,47
1052,095	42
1052,46	40,54
1052,825	40,66
1053,191	40,52
1053,556	41,16
1053,921	40,22
1054,286	41,26
1054,651	41,1
1055,016	41,19
1055,381	40,39
1055,745	40,88
1056,11	42,05
1056,475	40,9
1056,839	41,97
1057,203	40,66
1057,568	41,09
1057,932	41,21
1058,296	40,4
1058,66	40,62
1059,024	41,23
1059,388	41,38
1059,752	40,85
1060,116	41,05
1060,48	41,09
1060,843	40,5
1061,207	40,5
1061,57	41,34
1061,934	40,4
1062,297	40,3
1062,66	41,98
1063,023	40,56
1063,386	40,35
1063,749	40,76
1064,112	39,97
1064,475	40,93
1064,838	40,96
1065,201	41,75
1065,563	40,54
1065,926	40,87
1066,288	41,03
1066,651	40,37
1067,013	41,07
1067,375	41,31
1067,737	40,8
1068,099	41,83
1068,461	41,33
1068,823	40,99
1069,185	40,96
1069,547	40,81
1069,909	41,07
1070,27	41,16
1070,632	40,65
1070,993	40,99
1071,355	40,66
1071,716	41,45
1072,077	41,46
1072,438	41,74
1072,799	41,64
1073,16	42,09
1073,521	40,51
1073,882	40,74
1074,243	40,67
1074,603	40,69
1074,964	40,42
1075,325	40,92
1075,685	41,87
1076,045	41,44
1076,406	41,42
1076,766	41,1
1077,126	41,54
1077,486	41,29
1077,846	40,51
1078,206	40,74
1078,566	40,18
1078,925	41,9
1079,285	41,07
1079,645	41,4
1080,004	40,89
1080,364	40,32
1080,723	40,84
1081,082	41,18
1081,442	41,03
1081,801	41,62
1082,16	41,23
1082,519	41,91
1082,878	41,72
1083,237	40,83
1083,595	41,65
1083,954	41,21
1084,313	41,94
1084,671	42,82
1085,03	40,61
1085,388	40,68
1085,746	41,38
1086,104	40,27
1086,463	40,98
1086,821	41,18
1087,179	41,84
1087,537	41,47
1087,894	39,75
1088,252	40,66
1088,61	41,79
1088,967	41,94
1089,325	41,45
1089,682	40,4
1090,04	41,93
1090,397	41,24
1090,754	40,56
1091,111	42,03
1091,469	40,61
1091,826	40,9
1092,182	40,5
1092,539	40,95
1092,896	42,02
1093,253	39,31
1093,609	42,52
1093,966	40,59
1094,322	42,26
1094,679	41,69
1095,035	41,3
1095,391	40,96
1095,748	42,04
1096,104	40,6
1096,46	42,08
1096,816	39,48
1097,171	40,4
1097,527	40,5
1097,883	42,08
1098,239	41,02
1098,594	40,69
1098,95	42,11
1099,305	42,71
1099,66	40,41
1100,016	40,92
1100,371	42,31
1100,726	41,25
1101,081	41,58
1101,436	39,96
1101,791	41,65
1102,146	40,46
1102,5	39,89
1102,855	41,57
1103,21	43,33
1103,564	42,43
1103,918	41,58
1104,273	40,63
1104,627	39,69
1104,981	39,22
1105,335	41,16
1105,69	40,23
1106,043	41,84
1106,397	40,73
1106,751	41,31
1107,105	41,33
1107,459	40,32
1107,812	40,24
1108,166	41,16
1108,519	41,77
1108,873	42,41
1109,226	39,56
1109,579	42,88
1109,932	40,83
1110,285	41,51
1110,638	40,93
1110,991	41,9
1111,344	40,7
1111,697	41,64
1112,05	42,43
1112,402	41,39
1112,755	43,72
1113,107	42,44
1113,46	40,27
1113,812	43,31
1114,164	43,64
1114,517	44,09
1114,869	46,15
1115,221	51,61
1115,573	50
1115,924	48,18
