Data from E_6__Relative__4__00115.txt Node

Date: Mon Jan 29 18:20:53 CET 2024
User: diatiterra
Spectrometer: HDX00911
Trigger mode: 0
Integration Time (sec): 6,000000E-3
Scans to average: 2
Nonlinearity correction enabled: false
Boxcar width: 0
Storing dark spectrum: false
XAxis mode: Wavelengths
Number of Pixels in Spectrum: 2068
>>>>>Begin Spectral Data<<<<<
194,468	69,61
195,025	56,64
195,581	69,15
196,138	56,15
196,694	48,85
197,251	48
197,807	50
198,363	51,27
198,919	43,77
199,474	45,71
200,03	45,59
200,586	44,9
201,141	47,94
201,696	41,87
202,251	43,17
202,806	42,86
203,361	48,42
203,916	52,74
204,471	46,83
205,025	45,36
205,58	44,8
206,134	41,48
206,688	39,49
207,242	45,92
207,796	43,05
208,35	39,35
208,904	32,54
209,457	46,57
210,011	45,45
210,564	43,4
211,117	40,14
211,67	40,85
212,223	38,36
212,776	40,82
213,329	38,14
213,881	43,57
214,434	45,86
214,986	38,38
215,538	36,63
216,09	38,03
216,642	42,96
217,194	38,41
217,746	35,02
218,297	37,25
218,849	45,79
219,4	48,25
219,951	41,82
220,502	39,37
221,053	38,87
221,604	48,66
222,155	39,92
222,705	46,15
223,256	39,21
223,806	47,62
224,356	42,03
224,906	45,19
225,456	42,41
226,006	41,95
226,556	44,16
227,106	40,56
227,655	40,42
228,204	46,05
228,754	42,41
229,303	43,05
229,852	45,75
230,401	45,52
230,949	55,64
231,498	44,03
232,047	50,17
232,595	47,87
233,143	47,35
233,691	41,2
234,239	36,94
234,787	44,06
235,335	46,6
235,883	50,9
236,43	43,7
236,978	46,55
237,525	43,28
238,072	45,39
238,619	34,59
239,166	45,12
239,713	45,35
240,26	48,31
240,806	44,33
241,353	38,87
241,899	49,19
242,445	55,24
242,991	44,95
243,537	47,85
244,083	45,45
244,629	48,99
245,174	44,4
245,72	41,14
246,265	42,05
246,81	44,16
247,355	43,38
247,9	38,75
248,445	43,79
248,99	42,21
249,534	43,99
250,079	49,25
250,623	39,32
251,168	44,3
251,712	43,26
252,256	41,2
252,8	46,88
253,343	46,18
253,887	44,9
254,43	49,81
254,974	47,9
255,517	39,93
256,06	47,26
256,603	47,17
257,146	46,46
257,689	42,09
258,232	47,51
258,774	38,38
259,317	42,12
259,859	49,08
260,401	42,05
260,943	44,78
261,485	41,84
262,027	39,31
262,569	47,37
263,11	51,62
263,652	44,12
264,193	44,29
264,734	50,79
265,275	41,77
265,816	43,88
266,357	45,32
266,898	41,3
267,438	40
267,979	45,82
268,519	41,16
269,059	42,91
269,6	46,67
270,14	41,25
270,68	53,26
271,219	44,56
271,759	45,9
272,298	38,91
272,838	46,51
273,377	47,41
273,916	41,16
274,455	37,93
274,994	44,96
275,533	43,34
276,072	37,97
276,61	47,44
277,149	34,06
277,687	49,82
278,225	43,49
278,763	45,65
279,301	44,15
279,839	47,1
280,377	38,32
280,914	42,49
281,452	55,28
281,989	48,12
282,526	45,88
283,064	44,1
283,601	51,14
284,137	46,35
284,674	41,89
285,211	33,81
285,747	44,07
286,284	45,96
286,82	48,94
287,356	46,74
287,892	41,05
288,428	45,76
288,964	36,82
289,5	42,86
290,035	43,88
290,571	46,27
291,106	37,09
291,641	42,15
292,176	42,48
292,711	47,93
293,246	40,79
293,781	45,72
294,315	41,18
294,85	45,62
295,384	52,22
295,918	40,77
296,453	41,34
296,987	49,31
297,52	36,99
298,054	44,49
298,588	43,7
299,121	45,05
299,655	46,67
300,188	45,25
300,721	43,79
301,254	44,84
301,787	41,87
302,32	48,11
302,853	39,72
303,385	46,15
303,918	39,65
304,45	39,77
304,982	41,04
305,514	45,39
306,046	39,3
306,578	45,36
307,11	44,24
307,641	39,27
308,173	36,43
308,704	42,15
309,236	39,7
309,767	47,92
310,298	30,66
310,829	45,63
311,359	45,91
311,89	43,77
312,421	40,58
312,951	48,73
313,481	40,56
314,012	46,15
314,542	35,27
315,072	43,64
315,601	35,23
316,131	45,62
316,661	44,17
317,19	40,57
317,72	44,32
318,249	42,91
318,778	53,23
319,307	44,26
319,836	45,3
320,365	44,63
320,893	42,91
321,422	41,42
321,95	43,33
322,479	43,6
323,007	42,39
323,535	46,42
324,063	46,27
324,591	34,67
325,118	39,16
325,646	42,69
326,173	46,43
326,701	43,64
327,228	44,41
327,755	44,09
328,282	46,42
328,809	41,48
329,336	34,6
329,862	45,77
330,389	42,66
330,915	48,23
331,441	41,69
331,968	45,02
332,494	39,13
333,02	41,61
333,545	38,63
334,071	42,33
334,597	40,88
335,122	34,45
335,648	47,25
336,173	37,95
336,698	44,52
337,223	46,76
337,748	39,65
338,272	44,55
338,797	42,07
339,322	36,54
339,846	37,89
340,37	37
340,894	45,21
341,419	37,58
341,942	42,62
342,466	38,23
342,99	39,08
343,514	37,01
344,037	41,97
344,56	34,8
345,084	40,69
345,607	39,82
346,13	34,77
346,653	44,34
347,175	46,45
347,698	38,1
348,221	36,34
348,743	39,36
349,265	34,82
349,787	38,57
350,309	39,67
350,831	41,49
351,353	39,95
351,875	36,52
352,397	37,74
352,918	42,09
353,439	42,28
353,961	34,93
354,482	37,92
355,003	35,66
355,524	37,5
356,044	32,19
356,565	35,66
357,086	30,53
357,606	33,25
358,126	35,52
358,646	37,56
359,167	35,63
359,687	34,91
360,206	33,73
360,726	31,17
361,246	40,72
361,765	34,43
362,285	31,75
362,804	31,33
363,323	30,5
363,842	41,19
364,361	33,55
364,88	36,71
365,398	33,33
365,917	33,68
366,435	34,12
366,954	34,47
367,472	32,2
367,99	30,18
368,508	32,81
369,026	29,84
369,544	31,64
370,061	32,51
370,579	33,4
371,096	31,39
371,613	35,96
372,131	30,11
372,648	37,36
373,165	34,32
373,681	31,7
374,198	32,13
374,715	33,51
375,231	27,34
375,747	33,88
376,264	33,23
376,78	35,73
377,296	29,75
377,812	31,16
378,327	28,59
378,843	35,16
379,359	28,7
379,874	31,42
380,389	33,43
380,905	32,49
381,42	27,02
381,935	28,4
382,449	31,51
382,964	32,4
383,479	29,37
383,993	27,04
384,508	30,21
385,022	30,69
385,536	26,29
386,05	24,61
386,564	29,07
387,078	27,33
387,592	26,88
388,105	25,86
388,619	28,12
389,132	28,52
389,645	29,89
390,158	27,03
390,671	28,11
391,184	30,47
391,697	24,5
392,21	26,18
392,722	28,41
393,235	24,71
393,747	26,6
394,259	25,2
394,771	23,51
395,283	23,17
395,795	24,53
396,307	22,15
396,818	23,52
397,33	23,32
397,841	22,61
398,353	21,82
398,864	22,49
399,375	21,27
399,886	21,49
400,397	21,05
400,907	20,75
401,418	18,78
401,928	18,91
402,439	20,7
402,949	18,21
403,459	20,19
403,969	18,67
404,479	18,85
404,989	18,05
405,498	18,38
406,008	16,29
406,517	18,32
407,027	16,36
407,536	15,61
408,045	15,29
408,554	14,43
409,063	14,82
409,572	13,56
410,08	14,09
410,589	13,3
411,097	12,84
411,606	12,65
412,114	12,51
412,622	11,97
413,13	11,62
413,638	10,71
414,145	10,79
414,653	10,07
415,16	10,69
415,668	9,92
416,175	10,56
416,682	9,68
417,189	10,03
417,696	10,25
418,203	10,02
418,71	9,05
419,216	9,35
419,723	9,6
420,229	8,96
420,735	9,41
421,242	9,49
421,748	9,34
422,254	8,77
422,759	8,64
423,265	8,15
423,771	8,66
424,276	8,93
424,781	9,21
425,287	8,38
425,792	8,53
426,297	8,41
426,802	8,17
427,306	7,92
427,811	8,26
428,316	7,98
428,82	8,68
429,324	7,97
429,829	8,19
430,333	8,03
430,837	7,63
431,34	7,5
431,844	7,63
432,348	7,87
432,851	8,07
433,355	7,46
433,858	7,39
434,361	7,42
434,864	8,1
435,367	7,4
435,87	7,79
436,373	7,68
436,876	7,47
437,378	7,5
437,88	7,64
438,383	7,4
438,885	7,79
439,387	7,42
439,889	7,52
440,391	8,07
440,892	7,22
441,394	7,46
441,896	7,58
442,397	7,1
442,898	7,4
443,399	7,89
443,9	8,01
444,401	7,66
444,902	7,25
445,403	7,68
445,903	7,56
446,404	7,69
446,904	7,43
447,405	7,49
447,905	7,98
448,405	7,6
448,905	7,56
449,404	7,7
449,904	7,92
450,404	7,35
450,903	7,5
451,403	7,71
451,902	7,82
452,401	7,8
452,9	7,86
453,399	8,28
453,898	7,9
454,396	7,56
454,895	7,85
455,393	7,78
455,892	7,9
456,39	8,05
456,888	7,84
457,386	7,78
457,884	7,86
458,382	8,31
458,879	7,69
459,377	8,09
459,874	7,78
460,372	7,84
460,869	7,87
461,366	8
461,863	8,01
462,36	8,02
462,857	8,06
463,353	8,17
463,85	8,31
464,346	7,76
464,843	8,39
465,339	7,86
465,835	7,9
466,331	7,87
466,827	7,84
467,323	7,84
467,818	7,92
468,314	8,23
468,809	7,62
469,305	7,93
469,8	8,15
470,295	8
470,79	8,11
471,285	7,95
471,78	8,11
472,274	8,11
472,769	8,03
473,263	7,9
473,758	8,03
474,252	7,9
474,746	7,91
475,24	7,89
475,734	8,15
476,228	7,98
476,721	8,12
477,215	7,97
477,708	8,05
478,202	8,09
478,695	7,98
479,188	7,84
479,681	7,9
480,174	8,02
480,667	8,09
481,159	8,06
481,652	8,14
482,144	7,92
482,637	7,85
483,129	8,02
483,621	8,26
484,113	8,47
484,605	8,16
485,097	8,27
485,588	8,15
486,08	8,37
486,571	8,17
487,063	8,53
487,554	8,47
488,045	8,54
488,536	8,29
489,027	8,19
489,518	8,43
490,008	8,47
490,499	8,51
490,989	8,54
491,48	8,59
491,97	8,73
492,46	8,32
492,95	8,57
493,44	8,68
493,93	8,63
494,419	8,84
494,909	9,02
495,398	8,85
495,888	9,11
496,377	8,92
496,866	9,05
497,355	9,03
497,844	9,17
498,333	9,19
498,821	9,28
499,31	9,77
499,798	9,4
500,287	9,71
500,775	9,79
501,263	9,64
501,751	9,86
502,239	9,91
502,727	10,44
503,215	10,2
503,702	10,55
504,19	10,61
504,677	10,59
505,164	10,56
505,651	11,14
506,139	11,14
506,625	11,16
507,112	11,43
507,599	11,74
508,086	11,84
508,572	12
509,058	12,55
509,545	12,63
510,031	12,6
510,517	12,82
511,003	13,06
511,489	13,31
511,974	13,46
512,46	13,81
512,946	14,23
513,431	14,11
513,916	14,45
514,401	14,57
514,887	14,74
515,371	15,34
515,856	15,57
516,341	16,03
516,826	16,28
517,31	16,31
517,795	16,9
518,279	17,13
518,763	17,62
519,247	17,7
519,731	18,21
520,215	18,4
520,699	19,41
521,182	18,79
521,666	19,71
522,149	20,02
522,633	19,99
523,116	20,48
523,599	21,04
524,082	20,69
524,565	21,32
525,048	21,23
525,53	21,72
526,013	21,98
526,495	22,25
526,978	22,57
527,46	23,12
527,942	22,89
528,424	23,37
528,906	23,68
529,388	23,81
529,87	23,93
530,351	24,14
530,833	24,46
531,314	24,6
531,795	25
532,277	25,03
532,758	24,41
533,238	25,36
533,719	25,61
534,2	25,57
534,681	25,44
535,161	26,12
535,642	25,49
536,122	25,7
536,602	26,15
537,082	26,06
537,562	26,55
538,042	26,02
538,522	26,31
539,001	25,87
539,481	26,66
539,96	26,12
540,44	26,28
540,919	26,79
541,398	26,43
541,877	26,96
542,356	26,76
542,835	26,68
543,313	26,68
543,792	26,49
544,27	26,8
544,749	27,35
545,227	26,87
545,705	27,05
546,183	27,21
546,661	26,93
547,139	27,22
547,616	27,16
548,094	27,53
548,571	27,44
549,049	27,39
549,526	27,58
550,003	27,17
550,48	27,22
550,957	27,41
551,434	27,39
551,911	27,2
552,387	27,43
552,864	27,69
553,34	27,42
553,817	27,33
554,293	27,34
554,769	27,32
555,245	27,51
555,721	27,33
556,197	27,45
556,672	27,36
557,148	26,84
557,623	27,31
558,099	27,24
558,574	27,4
559,049	27,53
559,524	27,23
559,999	27,3
560,474	26,9
560,948	26,88
561,423	27,12
561,897	26,86
562,372	26,81
562,846	26,49
563,32	26,8
563,794	26,49
564,268	26,13
564,742	26,14
565,216	26,19
565,69	25,85
566,163	25,9
566,636	25,74
567,11	25,8
567,583	25,36
568,056	25,44
568,529	25,31
569,002	24,71
569,475	24,88
569,947	24,89
570,42	24,34
570,892	24,31
571,365	24,24
571,837	24,05
572,309	23,8
572,781	23,7
573,253	23,24
573,725	23,26
574,197	23,07
574,668	22,7
575,14	23,09
575,611	22,65
576,082	22,44
576,554	22,36
577,025	22,12
577,496	22,04
577,967	21,78
578,437	21,91
578,908	21,51
579,379	21,39
579,849	21,36
580,319	21,13
580,79	21,15
581,26	20,92
581,73	20,86
582,2	20,78
582,669	20,73
583,139	20,5
583,609	20,39
584,078	20,28
584,548	20,14
585,017	20,14
585,486	19,83
585,955	19,93
586,424	19,88
586,893	19,59
587,362	19,77
587,83	19,46
588,299	19,48
588,767	19,36
589,236	19,38
589,704	19,14
590,172	19,26
590,64	19,22
591,108	18,87
591,576	18,77
592,043	18,52
592,511	18,95
592,978	18,71
593,446	18,72
593,913	18,49
594,38	18,75
594,847	18,64
595,314	18,55
595,781	18,37
596,248	18,58
596,715	18,46
597,181	18,44
597,647	18,53
598,114	18,3
598,58	18,32
599,046	18,36
599,512	18,15
599,978	18,17
600,444	18,18
600,91	18,14
601,375	18,08
601,841	17,94
602,306	18,13
602,771	17,92
603,236	17,99
603,702	17,93
604,167	17,64
604,631	17,77
605,096	17,81
605,561	17,57
606,025	17,38
606,49	17,44
606,954	17,26
607,418	17,27
607,882	17,13
608,347	16,92
608,81	16,9
609,274	16,84
609,738	16,57
610,202	16,71
610,665	16,7
611,128	16,62
611,592	16,45
612,055	16,32
612,518	16,27
612,981	16,18
613,444	15,92
613,907	15,84
614,369	15,91
614,832	15,74
615,294	15,57
615,757	15,51
616,219	15,6
616,681	15,3
617,143	15,33
617,605	15,08
618,067	15,26
618,529	15,05
618,99	15,03
619,452	14,88
619,913	14,94
620,375	14,85
620,836	14,65
621,297	14,63
621,758	14,52
622,219	14,69
622,68	14,37
623,14	14,44
623,601	14,45
624,061	14,38
624,522	14,39
624,982	14,28
625,442	14,31
625,902	14,21
626,362	14,3
626,822	14,09
627,282	14,27
627,742	14,12
628,201	14,3
628,661	13,88
629,12	13,95
629,579	13,94
630,038	14,19
630,497	13,89
630,956	14,09
631,415	13,86
631,874	13,77
632,332	13,87
632,791	13,84
633,249	13,91
633,708	13,68
634,166	13,59
634,624	13,62
635,082	13,54
635,54	13,71
635,998	13,41
636,455	13,59
636,913	13,26
637,37	13,2
637,828	12,92
638,285	13,1
638,742	12,75
639,199	12,8
639,656	12,64
640,113	12,55
640,57	12,44
641,027	12,23
641,483	12,27
641,94	12,16
642,396	12,11
642,852	12,01
643,309	11,86
643,765	11,66
644,221	11,47
644,676	11,33
645,132	11,33
645,588	11,4
646,043	11,17
646,499	10,97
646,954	10,97
647,409	10,69
647,864	10,75
648,319	10,59
648,774	10,28
649,229	10,41
649,684	10,29
650,139	10,29
650,593	10,2
651,047	10,18
651,502	10,14
651,956	10,25
652,41	10,1
652,864	10,02
653,318	10,05
653,772	9,83
654,225	9,81
654,679	9,83
655,133	9,88
655,586	9,69
656,039	9,55
656,492	9,62
656,946	9,5
657,399	9,5
657,851	9,39
658,304	9,37
658,757	9,41
659,209	9,16
659,662	9,14
660,114	9,12
660,567	8,93
661,019	8,93
661,471	8,91
661,923	8,88
662,375	8,74
662,826	8,68
663,278	8,46
663,73	8,52
664,181	8,53
664,632	8,54
665,084	8,42
665,535	8,47
665,986	8,42
666,437	8,35
666,888	8,44
667,338	8,35
667,789	8,35
668,24	8,32
668,69	8,3
669,14	8,33
669,591	8,33
670,041	8,38
670,491	8,48
670,941	8,36
671,391	8,56
671,84	8,38
672,29	8,66
672,74	8,6
673,189	8,63
673,638	8,67
674,088	8,77
674,537	8,87
674,986	8,82
675,435	9,02
675,883	9
676,332	9,12
676,781	9,18
677,229	9,24
677,678	9,41
678,126	9,45
678,574	9,57
679,022	9,78
679,47	9,75
679,918	9,88
680,366	9,96
680,814	9,91
681,261	10,25
681,709	10,25
682,156	10,31
682,604	10,55
683,051	10,53
683,498	10,61
683,945	10,68
684,392	10,83
684,839	11,01
685,286	11,03
685,732	11,24
686,179	11,31
686,625	11,43
687,071	11,69
687,518	11,87
687,964	11,89
688,41	12,32
688,856	12,46
689,301	12,6
689,747	12,82
690,193	13,2
690,638	13,56
691,084	13,78
691,529	14,15
691,974	14,66
692,419	14,93
692,864	15,44
693,309	15,73
693,754	16,57
694,199	16,89
694,643	17,18
695,088	17,88
695,532	18,43
695,977	18,79
696,421	19,47
696,865	19,96
697,309	20,51
697,753	21,27
698,197	21,6
698,64	22,27
699,084	22,59
699,527	23,21
699,971	24,06
700,414	24,41
700,857	24,82
701,3	25,27
701,743	25,64
702,186	26,12
702,629	26,74
703,072	27,35
703,515	27,78
703,957	28,44
704,399	28,78
704,842	29,23
705,284	29,42
705,726	30,06
706,168	30,61
706,61	30,67
707,052	31,33
707,494	31,67
707,935	32,06
708,377	32,61
708,818	32,86
709,26	33,4
709,701	33,55
710,142	33,98
710,583	34,13
711,024	34,69
711,465	35,09
711,905	35,43
712,346	35,53
712,787	36,04
713,227	36,53
713,667	36,62
714,108	36,93
714,548	37,37
714,988	37,92
715,428	37,92
715,868	38,19
716,307	38,34
716,747	39,15
717,186	39,18
717,626	39,5
718,065	39,19
718,504	39,63
718,944	39,97
719,383	40,36
719,822	40,5
720,261	40,9
720,699	41,25
721,138	41,21
721,576	41,49
722,015	41,52
722,453	41,71
722,892	42,05
723,33	42,1
723,768	42,71
724,206	42,53
724,644	42,79
725,081	43,02
725,519	43,09
725,957	43,28
726,394	43,49
726,832	43,3
727,269	43,69
727,706	44
728,143	44,12
728,58	44,06
729,017	43,96
729,454	44,23
729,89	44,41
730,327	44,48
730,764	44,38
731,2	44,94
731,636	44,61
732,072	44,69
732,509	45,14
732,945	44,85
733,38	45,08
733,816	45,25
734,252	45,21
734,688	45,27
735,123	45,21
735,559	45,25
735,994	45,58
736,429	45,58
736,864	45,66
737,299	45,73
737,734	45,78
738,169	45,78
738,604	45,7
739,038	45,69
739,473	46,18
739,907	45,91
740,342	45,78
740,776	45,61
741,21	45,85
741,644	46,16
742,078	45,74
742,512	45,86
742,946	45,85
743,379	45,8
743,813	45,77
744,246	45,84
744,68	45,88
745,113	45,74
745,546	45,92
745,979	45,64
746,412	45,7
746,845	45,59
747,278	45,59
747,711	45,64
748,143	45,71
748,576	45,5
749,008	45,78
749,441	45,67
749,873	45,76
750,305	45,42
750,737	45,34
751,169	45,39
751,601	45,4
752,032	45,32
752,464	45,46
752,896	45,46
753,327	45,48
753,758	45,52
754,19	45,16
754,621	45,04
755,052	45,2
755,483	45,18
755,914	45,48
756,344	45,03
756,775	45,11
757,206	45,33
757,636	45,03
758,066	44,97
758,497	44,91
758,927	44,89
759,357	45,01
759,787	44,71
760,217	44,79
760,647	44,67
761,076	45,01
761,506	44,8
761,935	44,82
762,365	44,63
762,794	44,44
763,223	44,52
763,653	44,94
764,082	44,5
764,51	44,66
764,939	44,28
765,368	44,62
765,797	44,36
766,225	44,54
766,654	44,53
767,082	44,58
767,51	44,31
767,938	44,43
768,367	43,93
768,795	43,99
769,222	44,48
769,65	44,28
770,078	44,17
770,505	44,17
770,933	44,08
771,36	43,95
771,788	43,97
772,215	43,97
772,642	44,11
773,069	44,16
773,496	43,96
773,923	44,14
774,349	43,86
774,776	43,97
775,203	43,78
775,629	43,79
776,055	43,81
776,482	43,79
776,908	43,84
777,334	44
777,76	43,59
778,186	43,69
778,611	43,54
779,037	43,82
779,463	43,66
779,888	43,77
780,314	43,57
780,739	43,84
781,164	43,73
781,589	43,73
782,014	43,83
782,439	43,4
782,864	43,78
783,289	43,66
783,713	43,43
784,138	43,82
784,562	43,57
784,987	43,77
785,411	43,25
785,835	43,5
786,259	43,23
786,683	43,68
787,107	43,93
787,531	43,34
787,954	43,38
788,378	43,33
788,802	43,15
789,225	43,43
789,648	43,47
790,071	43,54
790,495	43,44
790,918	43,16
791,34	43,57
791,763	43,34
792,186	43,35
792,609	43,61
793,031	43,39
793,454	43,33
793,876	43,31
794,298	43,38
794,721	43,22
795,143	43,45
795,565	43,16
795,986	43,24
796,408	43,53
796,83	43,26
797,252	43,11
797,673	43,25
798,094	43,22
798,516	43,56
798,937	42,92
799,358	43,23
799,779	43
800,2	43,18
800,621	42,96
801,042	43,49
801,462	43,29
801,883	43,41
802,303	43,16
802,724	43,06
803,144	43,34
803,564	43,35
803,984	43,22
804,404	43,14
804,824	43,25
805,244	43,27
805,664	43,17
806,084	43,39
806,503	42,91
806,923	42,93
807,342	43,29
807,761	42,98
808,18	43,18
808,599	42,96
809,018	43,42
809,437	43,12
809,856	42,78
810,275	43,2
810,693	43,05
811,112	43,15
811,53	43,16
811,949	43,28
812,367	42,96
812,785	42,99
813,203	43
813,621	43
814,039	42,95
814,457	42,97
814,874	43,03
815,292	43,2
815,709	43,16
816,127	42,75
816,544	42,89
816,961	43,11
817,378	43
817,795	42,8
818,212	43,14
818,629	42,98
819,046	43,41
819,462	43,18
819,879	42,93
820,295	42,92
820,712	43
821,128	43,2
821,544	42,92
821,96	42,82
822,376	42,83
822,792	43,18
823,208	42,88
823,624	42,77
824,039	42,75
824,455	43,17
824,87	42,9
825,286	42,81
825,701	43,04
826,116	42,74
826,531	42,91
826,946	42,65
827,361	42,95
827,776	42,91
828,19	43,04
828,605	42,55
829,02	43,15
829,434	42,91
829,848	42,78
830,263	42,88
830,677	42,98
831,091	43,08
831,505	42,88
831,919	42,92
832,332	42,71
832,746	43,02
833,16	42,76
833,573	42,64
833,987	42,53
834,4	42,71
834,813	42,87
835,226	43,08
835,639	42,79
836,052	42,77
836,465	42,63
836,878	42,82
837,29	42,7
837,703	42,83
838,116	42,89
838,528	42,83
838,94	42,74
839,352	42,55
839,765	42,78
840,177	42,63
840,589	42,51
841	42,6
841,412	42,86
841,824	42,76
842,235	42,58
842,647	42,5
843,058	42,59
843,47	42,93
843,881	42,52
844,292	42,58
844,703	42,39
845,114	42,77
845,525	42,75
845,935	42,63
846,346	42,53
846,757	42,51
847,167	42,68
847,577	42,52
847,988	42,63
848,398	42,74
848,808	42,37
849,218	42,87
849,628	42,48
850,038	42,56
850,448	42,68
850,857	42,34
851,267	42,73
851,676	42,69
852,086	42,72
852,495	42,44
852,904	42,58
853,313	42,64
853,722	42,74
854,131	42,06
854,54	42,35
854,949	42,77
855,357	42,55
855,766	42,55
856,174	42,48
856,583	42,29
856,991	42,57
857,399	42,36
857,807	42,58
858,215	42,67
858,623	42,45
859,031	42,65
859,439	42,52
859,846	42,75
860,254	42,3
860,661	42,51
861,069	42,55
861,476	42,56
861,883	42,8
862,29	42,41
862,697	42,33
863,104	42,33
863,511	42,5
863,918	42,6
864,325	42,23
864,731	42,43
865,138	42,61
865,544	42,34
865,95	42,53
866,357	42,42
866,763	42,38
867,169	42,03
867,575	42,4
867,98	42,18
868,386	42,46
868,792	42,72
869,197	42,58
869,603	42,65
870,008	42,59
870,414	42,05
870,819	42,8
871,224	42,32
871,629	42,39
872,034	42,17
872,439	42,4
872,844	42,38
873,248	42,19
873,653	42,31
874,057	42,73
874,462	42,19
874,866	42,1
875,27	42,11
875,674	42,7
876,078	42,33
876,482	42,34
876,886	42,28
877,29	42,46
877,694	42,32
878,097	42,66
878,501	42,45
878,904	42,3
879,308	42,38
879,711	42,51
880,114	42,41
880,517	42,36
880,92	42,17
881,323	42,48
881,726	42,59
882,128	42,46
882,531	42,6
882,934	42,24
883,336	42,24
883,738	42,18
884,141	42,24
884,543	42,39
884,945	42,67
885,347	42,66
885,749	42,48
886,151	42,37
886,552	42,67
886,954	42,35
887,355	42,63
887,757	42,27
888,158	42,48
888,56	42,55
888,961	42,46
889,362	42,43
889,763	42,37
890,164	42,66
890,565	42,65
890,965	42,24
891,366	42,14
891,767	42,35
892,167	42,49
892,567	42,13
892,968	42,46
893,368	42,52
893,768	42,61
894,168	42,49
894,568	42,5
894,968	42,13
895,368	42,53
895,767	42,26
896,167	42,44
896,566	42,18
896,966	41,99
897,365	42,26
897,764	42,47
898,164	42,36
898,563	42,33
898,962	42,34
899,361	42,05
899,759	42,5
900,158	42,5
900,557	42,66
900,955	42,1
901,354	42,47
901,752	42,24
902,15	42,79
902,548	42,66
902,947	42,32
903,345	42,8
903,742	42,43
904,14	42,35
904,538	42,48
904,936	42,36
905,333	42,31
905,731	42,55
906,128	42,48
906,525	42,55
906,923	42,57
907,32	42,41
907,717	42,24
908,114	42,34
908,511	42,09
908,907	42,17
909,304	42,21
909,701	42,17
910,097	42,54
910,494	41,88
910,89	42,14
911,286	42,34
911,682	42,38
912,078	42,19
912,474	42,38
912,87	42,37
913,266	42,21
913,662	41,82
914,058	42,15
914,453	42,58
914,849	42,23
915,244	41,81
915,639	42,3
916,034	42,17
916,43	42,4
916,825	41,99
917,22	42,54
917,614	42,61
918,009	42,28
918,404	42
918,798	42,38
919,193	41,99
919,587	42,08
919,982	41,98
920,376	42,24
920,77	42,15
921,164	42,53
921,558	42,12
921,952	42,5
922,346	41,91
922,74	42,52
923,133	42,38
923,527	42,48
923,92	42,43
924,314	42,26
924,707	42,42
925,1	42,46
925,493	42,38
925,886	41,93
926,279	42,43
926,672	42,21
927,065	42,3
927,457	42,4
927,85	42,22
928,243	42,06
928,635	42,17
929,027	42,48
929,42	42,3
929,812	42,07
930,204	42,22
930,596	42
930,988	42,06
931,379	42,12
931,771	41,94
932,163	42,4
932,554	41,75
932,946	42,09
933,337	41,96
933,729	42,45
934,12	41,75
934,511	42,49
934,902	41,8
935,293	42,78
935,684	41,98
936,075	42,03
936,465	42,25
936,856	41,7
937,246	41,66
937,637	41,74
938,027	41,78
938,417	42,07
938,808	41,94
939,198	41,96
939,588	42,02
939,978	41,84
940,368	41,41
940,757	42,04
941,147	42,04
941,537	41,94
941,926	42,25
942,315	41,77
942,705	41,95
943,094	41,77
943,483	41,82
943,872	42,2
944,261	41,88
944,65	42,01
945,039	42,15
945,428	42,65
945,816	42,11
946,205	42,27
946,593	42,01
946,982	42,17
947,37	41,15
947,758	42,65
948,146	41,95
948,534	42,14
948,922	41,75
949,31	41,81
949,698	41,61
950,086	41,44
950,473	41,82
950,861	41,53
951,248	42,17
951,636	41,1
952,023	41,62
952,41	41,79
952,797	41,09
953,184	41,47
953,571	41,29
953,958	41,5
954,345	41,19
954,731	41,41
955,118	41,42
955,505	41,27
955,891	41,7
956,277	41,4
956,664	41,4
957,05	40,61
957,436	41,34
957,822	41,17
958,208	41,45
958,594	41,14
958,979	41,73
959,365	41,37
959,751	41,44
960,136	41,45
960,522	41,35
960,907	41,04
961,292	41,46
961,677	41,22
962,062	41,19
962,447	40,65
962,832	41,08
963,217	41,01
963,602	41,15
963,986	41,06
964,371	41,14
964,756	41,07
965,14	41,52
965,524	41,4
965,908	40,94
966,293	40,92
966,677	41,31
967,061	41,53
967,445	40,8
967,828	40,91
968,212	41
968,596	41,27
968,979	41,59
969,363	40,88
969,746	41,41
970,129	41,56
970,513	40,91
970,896	41,55
971,279	41,04
971,662	40,79
972,045	41,39
972,428	41,01
972,81	41,19
973,193	40,46
973,575	41,05
973,958	41,32
974,34	41,39
974,723	41,34
975,105	40,66
975,487	41,6
975,869	41,27
976,251	41,13
976,633	41,71
977,015	41,36
977,396	41,01
977,778	41,47
978,16	41,4
978,541	41,24
978,922	41,39
979,304	41,28
979,685	40,92
980,066	41,19
980,447	41,05
980,828	41,18
981,209	41,51
981,59	41,27
981,97	41,31
982,351	41,38
982,732	41,53
983,112	41,32
983,493	41,22
983,873	41,23
984,253	41,74
984,633	41,05
985,013	41,42
985,393	41,28
985,773	40,95
986,153	41,3
986,533	41,13
986,912	41,29
987,292	41,11
987,671	41,54
988,051	41,63
988,43	40,98
988,809	41,42
989,188	41,51
989,567	41,97
989,946	41,4
990,325	41,58
990,704	41,82
991,083	41,62
991,461	41,32
991,84	41,5
992,218	41,66
992,597	41,23
992,975	42,07
993,353	41,35
993,732	41,84
994,11	41,92
994,488	41,43
994,866	41,57
995,243	41,51
995,621	41,05
995,999	40,95
996,376	41,28
996,754	41,77
997,131	41,66
997,509	41,38
997,886	41,31
998,263	41,76
998,64	41,29
999,017	40,93
999,394	41,18
999,771	41,47
1000,148	41,36
1000,524	41,51
1000,901	40,99
1001,277	41,11
1001,654	41,91
1002,03	41,25
1002,406	41,48
1002,783	40,98
1003,159	41,52
1003,535	41,53
1003,911	41,59
1004,286	41,44
1004,662	41,42
1005,038	41,11
1005,414	41,76
1005,789	41,44
1006,164	41,98
1006,54	41,36
1006,915	42,04
1007,29	41,9
1007,665	41,89
1008,04	41,51
1008,415	41,74
1008,79	42,41
1009,165	41,91
1009,54	41,35
1009,914	41,31
1010,289	41,69
1010,663	41,85
1011,038	41,83
1011,412	42,08
1011,786	41,4
1012,16	41,8
1012,535	42,17
1012,909	41,72
1013,282	41,68
1013,656	41,5
1014,03	41,79
1014,404	41,89
1014,777	41,96
1015,151	42,01
1015,524	41,66
1015,897	42,27
1016,271	42,15
1016,644	41,64
1017,017	41,69
1017,39	41,6
1017,763	41,62
1018,136	41,6
1018,508	41,83
1018,881	41,82
1019,254	42
1019,626	41,87
1019,999	42,04
1020,371	41,55
1020,743	42,57
1021,116	42,11
1021,488	41,76
1021,86	42,05
1022,232	41,71
1022,604	41,65
1022,975	41,76
1023,347	42,04
1023,719	41,97
1024,09	41,74
1024,462	41,79
1024,833	41,69
1025,204	42,17
1025,576	42,23
1025,947	42,2
1026,318	42,09
1026,689	42,7
1027,06	42,11
1027,431	41,53
1027,801	41,93
1028,172	42,52
1028,543	42,1
1028,913	41,75
1029,284	41,74
1029,654	41,61
1030,024	41,65
1030,394	42,05
1030,764	42,74
1031,135	41,98
1031,504	42,62
1031,874	41,77
1032,244	41,52
1032,614	41,92
1032,983	42,11
1033,353	41,59
1033,722	41,8
1034,092	41,53
1034,461	41,81
1034,83	41,61
1035,2	41,91
1035,569	42,04
1035,938	42,29
1036,307	42,1
1036,675	42,22
1037,044	41,51
1037,413	41,08
1037,781	41,82
1038,15	42,5
1038,518	42,23
1038,887	42,3
1039,255	42,11
1039,623	41,75
1039,991	42,06
1040,359	42,08
1040,727	41,57
1041,095	42,39
1041,463	42,38
1041,831	41,91
1042,198	42,23
1042,566	41,53
1042,933	42,25
1043,301	41,54
1043,668	41,79
1044,035	41,59
1044,402	41,65
1044,77	42,15
1045,137	42,31
1045,503	41,49
1045,87	42,32
1046,237	41,4
1046,604	42,16
1046,97	42,23
1047,337	42,19
1047,703	41,18
1048,07	42,17
1048,436	42,15
1048,802	42,13
1049,168	42,1
1049,534	42,05
1049,9	41,62
1050,266	42,17
1050,632	42,01
1050,998	42,19
1051,364	42,47
1051,729	42,45
1052,095	42,09
1052,46	42,69
1052,825	41,99
1053,191	42,08
1053,556	41,59
1053,921	42,12
1054,286	42,71
1054,651	41,53
1055,016	42,55
1055,381	42,24
1055,745	42,09
1056,11	42,9
1056,475	42,24
1056,839	42,93
1057,203	42,42
1057,568	42,4
1057,932	41,14
1058,296	42,09
1058,66	41,47
1059,024	42,65
1059,388	41,74
1059,752	43,19
1060,116	42,27
1060,48	42,77
1060,843	43,05
1061,207	42,59
1061,57	42,04
1061,934	42,67
1062,297	42,17
1062,66	42,82
1063,023	42,02
1063,386	41,56
1063,749	41,26
1064,112	42,1
1064,475	42,24
1064,838	42,95
1065,201	42,13
1065,563	41,72
1065,926	41,56
1066,288	42,26
1066,651	42,07
1067,013	41,62
1067,375	41,47
1067,737	41,85
1068,099	42,39
1068,461	42,92
1068,823	41,59
1069,185	42,51
1069,547	41,61
1069,909	41,68
1070,27	42,93
1070,632	42,3
1070,993	41,87
1071,355	41,7
1071,716	42,79
1072,077	42,63
1072,438	42,55
1072,799	42,39
1073,16	42,69
1073,521	43,41
1073,882	42,12
1074,243	41,49
1074,603	42,23
1074,964	41,44
1075,325	42,67
1075,685	43,53
1076,045	41,71
1076,406	41,96
1076,766	41,71
1077,126	42,07
1077,486	43,66
1077,846	42,11
1078,206	42,2
1078,566	43,87
1078,925	42,65
1079,285	42,35
1079,645	42,93
1080,004	41,33
1080,364	40,86
1080,723	41,07
1081,082	42,45
1081,442	41,98
1081,801	42,87
1082,16	43,49
1082,519	42,46
1082,878	42,74
1083,237	41,82
1083,595	42,9
1083,954	42,92
1084,313	42,11
1084,671	43,65
1085,03	42,81
1085,388	41,39
1085,746	43,91
1086,104	41,89
1086,463	42,76
1086,821	43,24
1087,179	43,8
1087,537	42,86
1087,894	41,2
1088,252	40,78
1088,61	42,99
1088,967	42,13
1089,325	42,67
1089,682	42,56
1090,04	41,13
1090,397	41,99
1090,754	41,43
1091,111	42,2
1091,469	42,93
1091,826	43,41
1092,182	42,84
1092,539	42,16
1092,896	42,69
1093,253	42,13
1093,609	42,41
1093,966	41,88
1094,322	43,48
1094,679	42,53
1095,035	42,42
1095,391	42,46
1095,748	44,23
1096,104	41,18
1096,46	43,01
1096,816	43,35
1097,171	43,08
1097,527	40,78
1097,883	42,48
1098,239	42,83
1098,594	41,91
1098,95	40,92
1099,305	43,13
1099,66	43,34
1100,016	43,54
1100,371	44,3
1100,726	41,95
1101,081	41,94
1101,436	42,24
1101,791	43,05
1102,146	40,19
1102,5	41,67
1102,855	42,66
1103,21	44,15
1103,564	43,52
1103,918	42,41
1104,273	41,97
1104,627	43,61
1104,981	42,35
1105,335	42,76
1105,69	44,05
1106,043	43,12
1106,397	40,51
1106,751	45,69
1107,105	42,18
1107,459	43,44
1107,812	39,9
1108,166	42,95
1108,519	43,48
1108,873	42,47
1109,226	43,82
1109,579	43
1109,932	42,61
1110,285	43,09
1110,638	41,32
1110,991	44,97
1111,344	42,44
1111,697	43,1
1112,05	42,72
1112,402	43,68
1112,755	43,8
1113,107	43,72
1113,46	40,92
1113,812	45,77
1114,164	43,91
1114,517	42,71
1114,869	45,3
1115,221	60,48
1115,573	51,89
1115,924	48,91
