Data from F_5__Relative__2__00133.txt Node

Date: Mon Jan 29 18:23:22 CET 2024
User: diatiterra
Spectrometer: HDX00911
Trigger mode: 0
Integration Time (sec): 6,000000E-3
Scans to average: 2
Nonlinearity correction enabled: false
Boxcar width: 0
Storing dark spectrum: false
XAxis mode: Wavelengths
Number of Pixels in Spectrum: 2068
>>>>>Begin Spectral Data<<<<<
194,468	77,45
195,025	56,64
195,581	70,21
196,138	58,46
196,694	67,82
197,251	53,78
197,807	56,4
198,363	48
198,919	48,04
199,474	52,5
200,03	44,85
200,586	39,46
201,141	48,31
201,696	43,25
202,251	44,28
202,806	51,13
203,361	49,12
203,916	43,84
204,471	47,54
205,025	49,29
205,58	45,52
206,134	47,78
206,688	43,12
207,242	48,98
207,796	43,05
208,35	44,04
208,904	48,14
209,457	41,88
210,011	50,7
210,564	51,04
211,117	43,66
211,67	46,13
212,223	43,49
212,776	49,06
213,329	42,96
213,881	43,57
214,434	44,83
214,986	42,42
215,538	44,32
216,09	41,31
216,642	58,89
217,194	42,38
217,746	44,11
218,297	50
218,849	47,35
219,4	53,15
219,951	50,91
220,502	39,02
221,053	41,69
221,604	54,7
222,155	48,97
222,705	51,51
223,256	46,4
223,806	44,22
224,356	54,35
224,906	46,3
225,456	48,28
226,006	42,28
226,556	49,64
227,106	49,3
227,655	46,34
228,204	41,45
228,754	49,66
229,303	48,81
229,852	49,67
230,401	46,59
230,949	58,75
231,498	54,48
232,047	44,11
232,595	47,87
233,143	55,3
233,691	48
234,239	45,15
234,787	44,76
235,335	46,6
235,883	54,12
236,43	52,96
236,978	48
237,525	46,64
238,072	49,45
238,619	42,81
239,166	38,72
239,713	56,13
240,26	52,43
240,806	51,42
241,353	46,64
241,899	45,63
242,445	52,8
242,991	52,61
243,537	47,19
244,083	43,64
244,629	46,62
245,174	57,09
245,72	52,51
246,265	48,06
246,81	57,3
247,355	48,16
247,9	46,02
248,445	51,38
248,99	42,91
249,534	50,32
250,079	45,9
250,623	47,8
251,168	51,34
251,712	51,42
252,256	49,17
252,8	53,82
253,343	49,68
253,887	45,58
254,43	55,02
254,974	45,45
255,517	45,64
256,06	45,21
256,603	49,43
257,146	53,54
257,689	47,47
258,232	53,26
258,774	53,14
259,317	49,45
259,859	47,23
260,401	55,68
260,943	45,52
261,485	52,13
262,027	51,03
262,569	54,89
263,11	42,6
263,652	50
264,193	47,14
264,734	52,78
265,275	47,79
265,816	51,44
266,357	50
266,898	45,73
267,438	52,94
267,979	58,55
268,519	44,4
269,059	53,55
269,6	55,79
270,14	48,51
270,68	50,96
271,219	51,58
271,759	54,1
272,298	44,73
272,838	50
273,377	47,78
273,916	41,88
274,455	50,19
274,994	46,04
275,533	46,08
276,072	50,38
276,61	50,85
277,149	44,57
277,687	49,47
278,225	50
278,763	43,84
279,301	56,6
279,839	42,75
280,377	47,81
280,914	50,18
281,452	53,25
281,989	51,19
282,526	50,9
283,064	54,51
283,601	51,14
284,137	53,28
284,674	50,57
285,211	49,64
285,747	45,42
286,284	43,86
286,82	50,71
287,356	49,48
287,892	46,67
288,428	46,44
288,964	50,18
289,5	49,66
290,035	50,36
290,571	46,64
291,106	45,09
291,641	47,51
292,176	54,14
292,711	50,69
293,246	43,68
293,781	47,96
294,315	51,47
294,85	47,08
295,384	49,26
295,918	49,83
296,453	47
296,987	45,52
297,52	45,89
298,054	44,49
298,588	52,36
299,121	44,69
299,655	46,67
300,188	46,77
300,721	50
301,254	54,09
301,787	43,09
302,32	49,62
302,853	42,51
303,385	48,35
303,918	42,46
304,45	47,88
304,982	41,04
305,514	43,91
306,046	43,16
306,578	45
307,11	45,72
307,641	42,18
308,173	47,96
308,704	51,72
309,236	43,07
309,767	46,25
310,298	38,68
310,829	49,81
311,359	36,65
311,89	51,6
312,421	50,72
312,951	46,18
313,481	51,41
314,012	42,12
314,542	50,34
315,072	45,82
315,601	42,7
316,131	44,89
316,661	50
317,19	44,13
317,72	51,65
318,249	45,61
318,778	45,63
319,307	40,2
319,836	49,66
320,365	42,02
320,893	41,49
321,422	47,76
321,95	39,63
322,479	48,79
323,007	44,57
323,535	45,28
324,063	52,24
324,591	40,67
325,118	38,46
325,646	47,31
326,173	42,86
326,701	42,18
327,228	42,81
327,755	41,58
328,282	47,17
328,809	36,67
329,336	48,79
329,862	46,15
330,389	49,49
330,915	45,39
331,441	37,97
331,968	39,18
332,494	42,81
333,02	44,53
333,545	38,27
334,071	46,33
334,597	36,49
335,122	35,79
335,648	51,65
336,173	45,21
336,698	39,73
337,223	48,12
337,748	46,67
338,272	40,59
338,797	38,51
339,322	38,87
339,846	37,5
340,37	48,35
340,894	46,92
341,419	45,97
341,942	44,3
342,466	40,61
342,99	40,62
343,514	40,58
344,037	38,69
344,56	51,41
345,084	38,8
345,607	42,25
346,13	36,31
346,653	40,25
347,175	40,97
347,698	37,2
348,221	38,95
348,743	40,52
349,265	35,71
349,787	39,43
350,309	39,67
350,831	39,4
351,353	48,68
351,875	39,04
352,397	34,16
352,918	37,29
353,439	45,8
353,961	39,15
354,482	41,57
355,003	38,87
355,524	36,73
356,044	39,31
356,565	38,9
357,086	34,35
357,606	36,14
358,126	39,66
358,646	33,58
359,167	43,98
359,687	36,56
360,206	32,53
360,726	35,15
361,246	40,24
361,765	37,5
362,285	39,34
362,804	35,78
363,323	30,96
363,842	41,9
364,361	36,15
364,88	37,55
365,398	34,88
365,917	40,66
366,435	37,34
366,954	32,26
367,472	36,46
367,99	33,06
368,508	37,3
369,026	38,37
369,544	32,73
370,061	36,03
370,579	34,71
371,096	35,77
371,613	36,15
372,131	38,38
372,648	37,36
373,165	37,44
373,681	36,08
374,198	30
374,715	35,42
375,231	34,18
375,747	33,06
376,264	34,82
376,78	38,12
377,296	37,5
377,812	36,2
378,327	32,74
378,843	32,94
379,359	30,29
379,874	32,65
380,389	34,53
380,905	32,49
381,42	34,6
381,935	32,53
382,449	35,32
382,964	33,86
383,479	33,59
383,993	33,41
384,508	31,03
385,022	33,84
385,536	27,96
386,05	29,47
386,564	31,37
387,078	26,91
387,592	31,87
388,105	30,29
388,619	30,58
389,132	28,42
389,645	29,98
390,158	25,98
390,671	29,83
391,184	27
391,697	27,3
392,21	27,17
392,722	25,57
393,235	27,17
393,747	26,78
394,259	27,78
394,771	25,41
395,283	25,48
395,795	23,91
396,307	26,57
396,818	23,75
397,33	25,09
397,841	24,89
398,353	23,33
398,864	23,85
399,375	23,23
399,886	22,62
400,397	21,74
400,907	21,04
401,418	20,56
401,928	20,75
402,439	21,98
402,949	20,88
403,459	19,69
403,969	20,63
404,479	18,31
404,989	18,78
405,498	18,52
406,008	17,64
406,517	17,57
407,027	17,34
407,536	15,48
408,045	15,66
408,554	15,43
409,063	14,86
409,572	14,86
410,08	14,23
410,589	14,14
411,097	13,93
411,606	13,13
412,114	13,4
412,622	13,34
413,13	12,19
413,638	12,29
414,145	12,06
414,653	11,63
415,16	11,17
415,668	10,53
416,175	11,16
416,682	10,82
417,189	10,53
417,696	10,56
418,203	10,66
418,71	10,49
419,216	9,72
419,723	9,88
420,229	9,72
420,735	9,66
421,242	9,41
421,748	9,77
422,254	9,16
422,759	9,14
423,265	9,1
423,771	9,18
424,276	9,35
424,781	9
425,287	8,98
425,792	8,95
426,297	9,1
426,802	8,38
427,306	8,81
427,811	8,36
428,316	8,78
428,82	8,36
429,324	8,58
429,829	8,7
430,333	8,42
430,837	8,3
431,34	8,54
431,844	7,93
432,348	8,46
432,851	7,82
433,355	7,95
433,858	7,75
434,361	8,36
434,864	8,16
435,367	7,62
435,87	8,1
436,373	8,41
436,876	7,5
437,378	7,87
437,88	7,96
438,383	8,06
438,885	7,74
439,387	7,6
439,889	7,95
440,391	8,24
440,892	7,8
441,394	7,6
441,896	7,99
442,397	7,78
442,898	8,01
443,399	8,37
443,9	7,95
444,401	7,91
444,902	8,03
445,403	7,87
445,903	7,69
446,404	7,89
446,904	8,02
447,405	7,98
447,905	7,96
448,405	8,15
448,905	8,05
449,404	8,22
449,904	7,95
450,404	8,11
450,903	8,04
451,403	8,12
451,902	8,07
452,401	8,2
452,9	8,06
453,399	8,27
453,898	7,99
454,396	7,62
454,895	7,99
455,393	7,92
455,892	8,22
456,39	8,61
456,888	8,17
457,386	8,28
457,884	8,69
458,382	8,58
458,879	8,25
459,377	7,89
459,874	8,29
460,372	8,32
460,869	8,36
461,366	8,02
461,863	8,36
462,36	8,17
462,857	8,2
463,353	8,34
463,85	8,24
464,346	8,12
464,843	8,29
465,339	8,25
465,835	7,82
466,331	7,93
466,827	8,05
467,323	7,88
467,818	8,07
468,314	8,06
468,809	8,18
469,305	8,28
469,8	8,38
470,295	8,2
470,79	8,42
471,285	8,22
471,78	8,16
472,274	8,3
472,769	8
473,263	7,91
473,758	8,58
474,252	8,26
474,746	8,23
475,24	8,52
475,734	8,19
476,228	8,59
476,721	8,12
477,215	8,46
477,708	8,16
478,202	8,54
478,695	8,49
479,188	8,16
479,681	7,99
480,174	8,3
480,667	8,27
481,159	8,41
481,652	8,46
482,144	8,22
482,637	8,53
483,129	8,48
483,621	8,24
484,113	8,78
484,605	8,49
485,097	8,52
485,588	8,58
486,08	8,59
486,571	8,91
487,063	8,61
487,554	8,38
488,045	8,54
488,536	8,61
489,027	8,83
489,518	8,83
490,008	8,87
490,499	8,47
490,989	8,67
491,48	8,82
491,97	9,05
492,46	8,81
492,95	8,97
493,44	9
493,93	9,14
494,419	9,16
494,909	9,03
495,398	9,03
495,888	8,81
496,377	9,06
496,866	9,02
497,355	9,42
497,844	9,33
498,333	9,41
498,821	9,44
499,31	9,51
499,798	9,52
500,287	9,61
500,775	9,81
501,263	9,99
501,751	10,15
502,239	10,2
502,727	10,38
503,215	10,38
503,702	10,55
504,19	10,45
504,677	10,55
505,164	10,72
505,651	10,86
506,139	11,09
506,625	11,25
507,112	11,41
507,599	11,36
508,086	11,62
508,572	11,82
509,058	11,86
509,545	12,29
510,031	12,48
510,517	12,31
511,003	12,92
511,489	12,71
511,974	12,98
512,46	13,22
512,946	13,77
513,431	13,6
513,916	14,1
514,401	14,57
514,887	14,12
515,371	14,66
515,856	15,16
516,341	15,36
516,826	15,73
517,31	15,84
517,795	16,18
518,279	16,52
518,763	16,89
519,247	16,74
519,731	17,44
520,215	17,99
520,699	17,83
521,182	17,89
521,666	18,62
522,149	18,82
522,633	18,98
523,116	19,68
523,599	19,88
524,082	20,36
524,565	20,26
525,048	20,46
525,53	21,02
526,013	21,43
526,495	21,45
526,978	21,61
527,46	22,02
527,942	22,18
528,424	22,57
528,906	22,37
529,388	22,85
529,87	23,04
530,351	22,9
530,833	23,48
531,314	23,61
531,795	24,21
532,277	23,91
532,758	24,09
533,238	24,34
533,719	24,26
534,2	24,54
534,681	24,4
535,161	25,13
535,642	24,32
536,122	24,58
536,602	25,06
537,082	25,1
537,562	25,42
538,042	25,1
538,522	25,32
539,001	25,38
539,481	25,21
539,96	25,27
540,44	25,62
540,919	25,82
541,398	25,64
541,877	25,35
542,356	25,57
542,835	25,9
543,313	25,83
543,792	25,86
544,27	25,65
544,749	26,09
545,227	25,67
545,705	26,13
546,183	25,84
546,661	26,29
547,139	25,81
547,616	26,17
548,094	26,45
548,571	26,29
549,049	26,26
549,526	26,24
550,003	26,39
550,48	26,38
550,957	26,34
551,434	26,39
551,911	26,62
552,387	26,3
552,864	26,46
553,34	26,53
553,817	26,6
554,293	26,51
554,769	25,95
555,245	26,67
555,721	26,49
556,197	26,36
556,672	26,49
557,148	26,53
557,623	26,41
558,099	26,37
558,574	26,55
559,049	26,33
559,524	26,35
559,999	26,16
560,474	25,97
560,948	26,24
561,423	26,19
561,897	25,79
562,372	25,9
562,846	25,57
563,32	25,63
563,794	25,71
564,268	25,52
564,742	25,36
565,216	24,94
565,69	25,09
566,163	25,03
566,636	24,78
567,11	24,44
567,583	24,44
568,056	24,48
568,529	24,26
569,002	24,05
569,475	23,7
569,947	23,55
570,42	23,24
570,892	23,2
571,365	23,34
571,837	23,2
572,309	22,85
572,781	22,57
573,253	22,15
573,725	22,39
574,197	22,54
574,668	21,72
575,14	21,9
575,611	21,62
576,082	21,28
576,554	21,32
577,025	21,39
577,496	20,88
577,967	20,74
578,437	20,66
578,908	20,46
579,379	20,28
579,849	20,5
580,319	20,13
580,79	20,2
581,26	19,74
581,73	19,9
582,2	20,05
582,669	19,51
583,139	19,8
583,609	19,45
584,078	19,26
584,548	19,18
585,017	18,93
585,486	18,77
585,955	19,22
586,424	18,83
586,893	18,84
587,362	18,63
587,83	18,69
588,299	18,38
588,767	18,7
589,236	18,22
589,704	18,54
590,172	18,55
590,64	18,09
591,108	18,02
591,576	17,92
592,043	18,1
592,511	17,96
592,978	17,99
593,446	17,99
593,913	17,81
594,38	17,98
594,847	17,59
595,314	17,6
595,781	17,49
596,248	17,6
596,715	17,72
597,181	17,44
597,647	17,32
598,114	17,34
598,58	17,4
599,046	17,48
599,512	17,52
599,978	17,32
600,444	17,31
600,91	17,3
601,375	17,33
601,841	16,96
602,306	17,29
602,771	17,13
603,236	17
603,702	17,16
604,167	16,96
604,631	16,77
605,096	16,89
605,561	16,77
606,025	16,74
606,49	16,52
606,954	16,67
607,418	16,63
607,882	16,08
608,347	16,4
608,81	16,04
609,274	16,02
609,738	16,11
610,202	15,93
610,665	15,93
611,128	15,61
611,592	15,76
612,055	15,53
612,518	15,51
612,981	15,46
613,444	15,15
613,907	15,16
614,369	15,13
614,832	15,2
615,294	14,96
615,757	14,78
616,219	14,95
616,681	14,58
617,143	14,7
617,605	14,38
618,067	14,42
618,529	14,24
618,99	14,4
619,452	14,4
619,913	14,17
620,375	13,87
620,836	14,25
621,297	14,16
621,758	13,98
622,219	13,87
622,68	13,89
623,14	13,86
623,601	13,73
624,061	13,76
624,522	13,72
624,982	13,49
625,442	13,64
625,902	13,64
626,362	13,53
626,822	13,59
627,282	13,42
627,742	13,58
628,201	13,36
628,661	13,41
629,12	13,42
629,579	13,4
630,038	13,48
630,497	13,33
630,956	13,41
631,415	13,32
631,874	13,4
632,332	13,29
632,791	13,26
633,249	13,11
633,708	13,2
634,166	13,17
634,624	13,15
635,082	13
635,54	12,85
635,998	13,05
636,455	12,8
636,913	12,62
637,37	12,38
637,828	12,58
638,285	12,3
638,742	12,27
639,199	12,28
639,656	12,07
640,113	12,26
640,57	12,05
641,027	11,93
641,483	11,75
641,94	11,54
642,396	11,71
642,852	11,55
643,309	11,46
643,765	11,17
644,221	11,07
644,676	11,18
645,132	10,92
645,588	10,94
646,043	10,75
646,499	10,58
646,954	10,6
647,409	10,32
647,864	10,34
648,319	10,2
648,774	10,16
649,229	10,08
649,684	10,09
650,139	10,01
650,593	9,9
651,047	9,9
651,502	9,92
651,956	9,69
652,41	9,71
652,864	9,76
653,318	9,81
653,772	9,54
654,225	9,61
654,679	9,56
655,133	9,49
655,586	9,52
656,039	9,32
656,492	9,4
656,946	9,31
657,399	9,21
657,851	9,09
658,304	9,13
658,757	9,13
659,209	9,03
659,662	8,98
660,114	8,74
660,567	8,81
661,019	8,65
661,471	8,67
661,923	8,56
662,375	8,52
662,826	8,45
663,278	8,27
663,73	8,36
664,181	8,23
664,632	8,23
665,084	8,25
665,535	8,16
665,986	8,15
666,437	8,11
666,888	8,02
667,338	8,18
667,789	8,01
668,24	8,08
668,69	8,12
669,14	8,08
669,591	8,1
670,041	8,02
670,491	8,1
670,941	8,2
671,391	8,08
671,84	8,16
672,29	8,27
672,74	8,21
673,189	8,24
673,638	8,41
674,088	8,47
674,537	8,55
674,986	8,46
675,435	8,61
675,883	8,66
676,332	8,73
676,781	8,83
677,229	8,85
677,678	8,88
678,126	8,96
678,574	9,01
679,022	9,21
679,47	9,25
679,918	9,29
680,366	9,4
680,814	9,43
681,261	9,56
681,709	9,52
682,156	9,78
682,604	9,8
683,051	9,97
683,498	9,9
683,945	10,12
684,392	10,31
684,839	10,35
685,286	10,5
685,732	10,59
686,179	10,66
686,625	10,85
687,071	10,89
687,518	11,16
687,964	11,21
688,41	11,47
688,856	11,73
689,301	11,89
689,747	12,15
690,193	12,48
690,638	12,74
691,084	12,84
691,529	13,29
691,974	13,8
692,419	14,12
692,864	14,43
693,309	15,04
693,754	15,28
694,199	15,9
694,643	16,38
695,088	16,9
695,532	17,42
695,977	17,83
696,421	18,4
696,865	18,94
697,309	19,37
697,753	20,11
698,197	20,59
698,64	21,09
699,084	21,62
699,527	22,12
699,971	22,59
700,414	23,36
700,857	23,84
701,3	24,35
701,743	24,79
702,186	25,3
702,629	26,07
703,072	26,37
703,515	26,84
703,957	27,67
704,399	27,71
704,842	28,35
705,284	29,03
705,726	29,4
706,168	29,89
706,61	30,31
707,052	30,91
707,494	31,19
707,935	31,7
708,377	32,03
708,818	32,5
709,26	32,98
709,701	33,41
710,142	33,71
710,583	34,06
711,024	34,45
711,465	35,11
711,905	35,36
712,346	35,54
712,787	36,05
713,227	36,76
713,667	36,98
714,108	37,26
714,548	37,62
714,988	38,18
715,428	38,15
715,868	38,59
716,307	39,06
716,747	39,44
717,186	39,95
717,626	40,4
718,065	40,21
718,504	40,6
718,944	40,93
719,383	41,2
719,822	41,7
720,261	41,89
720,699	42,28
721,138	42,59
721,576	42,76
722,015	42,87
722,453	43,42
722,892	43,59
723,33	43,66
723,768	44,15
724,206	44,44
724,644	44,59
725,081	44,8
725,519	45,09
725,957	45
726,394	45,36
726,832	45,5
727,269	45,96
727,706	46,02
728,143	46,57
728,58	46,22
729,017	46,24
729,454	46,59
729,89	46,33
730,327	46,77
730,764	47,16
731,2	47,15
731,636	46,87
732,072	47,33
732,509	47,68
732,945	47,77
733,38	47,85
733,816	47,89
734,252	47,8
734,688	48,11
735,123	47,96
735,559	48,15
735,994	48,44
736,429	48,11
736,864	48,37
737,299	48,61
737,734	48,64
738,169	48,64
738,604	48,63
739,038	48,86
739,473	49,09
739,907	48,91
740,342	48,75
740,776	48,7
741,21	48,78
741,644	48,92
742,078	48,9
742,512	49,15
742,946	48,83
743,379	48,93
743,813	48,83
744,246	49,12
744,68	48,94
745,113	49,14
745,546	49,09
745,979	48,78
746,412	49,14
746,845	48,86
747,278	48,68
747,711	48,95
748,143	49,02
748,576	48,96
749,008	49,12
749,441	49,01
749,873	48,69
750,305	48,89
750,737	48,73
751,169	49,03
751,601	48,97
752,032	49,06
752,464	48,64
752,896	48,8
753,327	48,86
753,758	48,87
754,19	48,82
754,621	48,56
755,052	48,57
755,483	48,45
755,914	48,59
756,344	48,4
756,775	48,46
757,206	48,7
757,636	48,35
758,066	48,27
758,497	48,28
758,927	48,47
759,357	48,43
759,787	48,32
760,217	48,27
760,647	48,4
761,076	48,11
761,506	48,35
761,935	48,24
762,365	48,17
762,794	48,35
763,223	48,13
763,653	48,52
764,082	47,74
764,51	47,93
764,939	47,92
765,368	48,27
765,797	47,78
766,225	48,1
766,654	47,94
767,082	48,18
767,51	47,94
767,938	47,78
768,367	47,54
768,795	47,53
769,222	47,89
769,65	47,84
770,078	47,57
770,505	47,64
770,933	47,7
771,36	47,04
771,788	47,68
772,215	47,65
772,642	47,47
773,069	47,68
773,496	47,6
773,923	47,56
774,349	47,3
774,776	47,44
775,203	47,25
775,629	47,61
776,055	47,17
776,482	47,35
776,908	47,37
777,334	47,38
777,76	47,24
778,186	47,25
778,611	47,46
779,037	47,25
779,463	46,82
779,888	47,24
780,314	47,41
780,739	47,11
781,164	47,21
781,589	47,25
782,014	47,36
782,439	47,05
782,864	47,04
783,289	47,18
783,713	47,03
784,138	47,29
784,562	47,23
784,987	47,08
785,411	46,9
785,835	47,45
786,259	46,9
786,683	47,03
787,107	47,24
787,531	46,72
787,954	47,14
788,378	46,9
788,802	46,93
789,225	46,95
789,648	47,06
790,071	46,95
790,495	46,93
790,918	46,86
791,34	46,93
791,763	46,85
792,186	46,94
792,609	46,81
793,031	46,9
793,454	47,06
793,876	46,92
794,298	47,01
794,721	46,83
795,143	47,17
795,565	46,69
795,986	46,79
796,408	46,82
796,83	46,84
797,252	46,83
797,673	46,97
798,094	46,89
798,516	46,79
798,937	46,31
799,358	46,76
799,779	47,12
800,2	46,54
800,621	46,21
801,042	47,01
801,462	46,79
801,883	46,62
802,303	46,64
802,724	46,47
803,144	46,65
803,564	46,61
803,984	46,67
804,404	46,64
804,824	46,96
805,244	46,93
805,664	46,79
806,084	46,57
806,503	46,69
806,923	46,94
807,342	46,46
807,761	46,52
808,18	46,51
808,599	46,55
809,018	46,7
809,437	46,39
809,856	46,46
810,275	46,67
810,693	46,99
811,112	46,56
811,53	46,46
811,949	46,59
812,367	46,58
812,785	46,48
813,203	46,89
813,621	46,71
814,039	46,55
814,457	46,84
814,874	46,61
815,292	46,92
815,709	46,83
816,127	46,3
816,544	46,55
816,961	46,58
817,378	46,66
817,795	46,75
818,212	46,57
818,629	46,9
819,046	46,71
819,462	46,45
819,879	46,76
820,295	46,32
820,712	46,72
821,128	46,61
821,544	46,54
821,96	46,65
822,376	46,5
822,792	46,59
823,208	46,49
823,624	46,56
824,039	46,56
824,455	46,69
824,87	46,6
825,286	46,68
825,701	46,51
826,116	46,53
826,531	46,69
826,946	46,53
827,361	46,77
827,776	46,63
828,19	46,02
828,605	46,22
829,02	46,32
829,434	46,34
829,848	46,27
830,263	46,25
830,677	46,3
831,091	46,36
831,505	46,46
831,919	46,49
832,332	46,29
832,746	46,38
833,16	46,32
833,573	46,42
833,987	45,97
834,4	46,33
834,813	46,51
835,226	46,55
835,639	46,27
836,052	46,65
836,465	46,35
836,878	46,08
837,29	46,33
837,703	46,44
838,116	46,56
838,528	46,15
838,94	46,19
839,352	46,04
839,765	46,11
840,177	46,03
840,589	46,07
841	46,16
841,412	46,48
841,824	46,2
842,235	46,52
842,647	46,11
843,058	46,01
843,47	46,19
843,881	46,19
844,292	46,03
844,703	46,17
845,114	46,07
845,525	46,39
845,935	46,31
846,346	46,15
846,757	46,23
847,167	46,43
847,577	46,24
847,988	46,1
848,398	46,35
848,808	46,2
849,218	46,38
849,628	46,04
850,038	46,37
850,448	46,31
850,857	46,08
851,267	46,05
851,676	46,33
852,086	46,08
852,495	46,07
852,904	46,05
853,313	46,3
853,722	46
854,131	45,58
854,54	46,3
854,949	46,43
855,357	46,13
855,766	46,22
856,174	45,84
856,583	46,06
856,991	45,91
857,399	45,93
857,807	46,21
858,215	46,04
858,623	46,07
859,031	46,29
859,439	46,1
859,846	46,05
860,254	45,92
860,661	46,24
861,069	46,03
861,476	46,11
861,883	46,3
862,29	45,79
862,697	46,06
863,104	45,92
863,511	45,75
863,918	45,93
864,325	46,17
864,731	45,74
865,138	46,32
865,544	46,23
865,95	46,21
866,357	46,36
866,763	45,72
867,169	45,62
867,575	45,88
867,98	45,67
868,386	45,91
868,792	46,23
869,197	46,28
869,603	46,12
870,008	45,83
870,414	45,73
870,819	46,24
871,224	45,86
871,629	46,02
872,034	46,2
872,439	46,13
872,844	46,01
873,248	45,67
873,653	45,98
874,057	46,44
874,462	46,05
874,866	45,87
875,27	45,98
875,674	46,25
876,078	46,1
876,482	46,02
876,886	45,76
877,29	45,98
877,694	46,11
878,097	46,34
878,501	46,21
878,904	46,32
879,308	46,04
879,711	46,05
880,114	45,94
880,517	45,88
880,92	46,3
881,323	46,11
881,726	45,87
882,128	45,96
882,531	46,06
882,934	45,79
883,336	45,85
883,738	45,97
884,141	45,82
884,543	45,86
884,945	45,97
885,347	45,81
885,749	46,02
886,151	46,02
886,552	45,84
886,954	46,05
887,355	46,12
887,757	45,87
888,158	45,79
888,56	45,94
888,961	45,87
889,362	45,86
889,763	45,81
890,164	46,11
890,565	46,02
890,965	45,93
891,366	45,76
891,767	46,23
892,167	45,87
892,567	45,92
892,968	46,02
893,368	45,76
893,768	45,97
894,168	46,03
894,568	46,06
894,968	45,73
895,368	45,82
895,767	45,98
896,167	45,91
896,566	46,06
896,966	46,04
897,365	46
897,764	45,67
898,164	45,85
898,563	45,69
898,962	45,86
899,361	45,97
899,759	46,19
900,158	46,06
900,557	45,89
900,955	46,18
901,354	45,97
901,752	45,87
902,15	46,48
902,548	46,02
902,947	45,85
903,345	46,18
903,742	46,02
904,14	45,88
904,538	45,67
904,936	45,95
905,333	46,16
905,731	46
906,128	45,91
906,525	46,27
906,923	46,09
907,32	45,81
907,717	46,07
908,114	46,15
908,511	45,76
908,907	45,77
909,304	45,85
909,701	45,59
910,097	46,21
910,494	45,69
910,89	45,97
911,286	45,82
911,682	45,94
912,078	45,97
912,474	45,79
912,87	45,83
913,266	45,87
913,662	45,83
914,058	45,61
914,453	45,76
914,849	45,99
915,244	45,66
915,639	45,93
916,034	45,79
916,43	45,97
916,825	45,67
917,22	46,06
917,614	45,85
918,009	45,76
918,404	45,82
918,798	46,11
919,193	45,99
919,587	45,89
919,982	45,46
920,376	45,85
920,77	45,77
921,164	46,22
921,558	46,17
921,952	45,88
922,346	45,99
922,74	45,68
923,133	46,09
923,527	45,6
923,92	45,93
924,314	45,69
924,707	46,05
925,1	45,89
925,493	45,81
925,886	45,67
926,279	46,51
926,672	45,99
927,065	45,66
927,457	45,87
927,85	46,1
928,243	45,64
928,635	46,05
929,027	45,94
929,42	45,87
929,812	45,56
930,204	45,67
930,596	45,46
930,988	45,52
931,379	45,37
931,771	45,42
932,163	45,71
932,554	45,46
932,946	45,55
933,337	45,55
933,729	46,14
934,12	45,29
934,511	45,93
934,902	45,47
935,293	45,95
935,684	45,63
936,075	44,87
936,465	45,12
936,856	45,08
937,246	45,59
937,637	45,95
938,027	45,77
938,417	45,09
938,808	45,25
939,198	45,8
939,588	45,59
939,978	45,44
940,368	44,58
940,757	44,68
941,147	45,04
941,537	44,22
941,926	45,14
942,315	45,25
942,705	45,4
943,094	45,13
943,483	44,9
943,872	45,31
944,261	44,73
944,65	45,08
945,039	45,18
945,428	45,79
945,816	45,2
946,205	44,7
946,593	45,09
946,982	45,6
947,37	44,59
947,758	45,08
948,146	44,93
948,534	45,02
948,922	44,85
949,31	45,39
949,698	45,65
950,086	44,76
950,473	44,69
950,861	44,77
951,248	44,88
951,636	44,84
952,023	44,37
952,41	44,38
952,797	44,39
953,184	43,93
953,571	44,09
953,958	44,79
954,345	44,1
954,731	44,2
955,118	44,42
955,505	43,57
955,891	44,5
956,277	44,41
956,664	44,08
957,05	44,14
957,436	44,33
957,822	44,28
958,208	44,65
958,594	44,09
958,979	43,99
959,365	44,62
959,751	44,28
960,136	43,8
960,522	43,98
960,907	43,97
961,292	43,59
961,677	44,09
962,062	44,23
962,447	44,21
962,832	43,89
963,217	44,33
963,602	44,49
963,986	44,3
964,371	43,84
964,756	43,45
965,14	43,86
965,524	43,91
965,908	43,48
966,293	44,45
966,677	44,12
967,061	44,22
967,445	43,98
967,828	43,93
968,212	44,31
968,596	43,66
968,979	44,27
969,363	43,79
969,746	44,01
970,129	43,63
970,513	44,09
970,896	44,6
971,279	44,08
971,662	43,42
972,045	44,1
972,428	43,87
972,81	44,1
973,193	44,03
973,575	43,92
973,958	44,08
974,34	44,16
974,723	43,87
975,105	43,5
975,487	43,93
975,869	44,07
976,251	43,91
976,633	44,34
977,015	44,59
977,396	44,33
977,778	44,17
978,16	44,38
978,541	44,11
978,922	44,05
979,304	43,73
979,685	44,38
980,066	44,4
980,447	44,14
980,828	44,3
981,209	44,34
981,59	43,81
981,97	44,18
982,351	43,83
982,732	44,33
983,112	44,48
983,493	44,32
983,873	44,52
984,253	44,25
984,633	43,8
985,013	44,62
985,393	44,6
985,773	43,93
986,153	44,02
986,533	44,33
986,912	44,19
987,292	44,42
987,671	44,4
988,051	44,11
988,43	43,81
988,809	44,15
989,188	44,66
989,567	44,84
989,946	43,83
990,325	44,23
990,704	44,19
991,083	44,19
991,461	45,05
991,84	43,53
992,218	44,34
992,597	43,89
992,975	44,74
993,353	43,97
993,732	44,3
994,11	44,74
994,488	44,44
994,866	44,08
995,243	44,35
995,621	44,07
995,999	43,89
996,376	44,14
996,754	44,29
997,131	44,36
997,509	44,65
997,886	44,7
998,263	44,79
998,64	44,6
999,017	44,06
999,394	44,73
999,771	44,38
1000,148	43,91
1000,524	44,92
1000,901	44,3
1001,277	44,79
1001,654	44,89
1002,03	44,26
1002,406	44,28
1002,783	44,28
1003,159	44,98
1003,535	44,17
1003,911	44,61
1004,286	44,59
1004,662	44,23
1005,038	44,21
1005,414	44,61
1005,789	44,43
1006,164	44,39
1006,54	44,07
1006,915	44,44
1007,29	44,59
1007,665	44,42
1008,04	44,28
1008,415	45,13
1008,79	44,59
1009,165	44,66
1009,54	44,52
1009,914	44,38
1010,289	44,61
1010,663	44,78
1011,038	44,58
1011,412	44,56
1011,786	44,47
1012,16	44,71
1012,535	44,5
1012,909	44,93
1013,282	44,74
1013,656	44,2
1014,03	44,78
1014,404	44,59
1014,777	44,58
1015,151	44,08
1015,524	44,79
1015,897	45,36
1016,271	44,76
1016,644	44,13
1017,017	44,78
1017,39	44,28
1017,763	44,57
1018,136	44,53
1018,508	45,28
1018,881	44,69
1019,254	45,81
1019,626	44,64
1019,999	45
1020,371	44,97
1020,743	44,79
1021,116	44,84
1021,488	44,8
1021,86	45,18
1022,232	44,91
1022,604	44,91
1022,975	45,53
1023,347	45,42
1023,719	44,81
1024,09	44,45
1024,462	44,88
1024,833	44,62
1025,204	44,9
1025,576	44,82
1025,947	45,24
1026,318	44,72
1026,689	44,63
1027,06	45,04
1027,431	44,36
1027,801	45,02
1028,172	45,63
1028,543	45,67
1028,913	44,46
1029,284	44,53
1029,654	45
1030,024	44,58
1030,394	44,49
1030,764	45,81
1031,135	44,82
1031,504	44,93
1031,874	44,7
1032,244	45,18
1032,614	45,15
1032,983	44,84
1033,353	45,04
1033,722	45,46
1034,092	45,14
1034,461	44,93
1034,83	44,91
1035,2	45,24
1035,569	45
1035,938	44,92
1036,307	45,55
1036,675	45,82
1037,044	45,37
1037,413	44,89
1037,781	44,31
1038,15	44,62
1038,518	44,89
1038,887	46,22
1039,255	45,01
1039,623	44,68
1039,991	45,22
1040,359	44,04
1040,727	44,89
1041,095	45,32
1041,463	45,83
1041,831	44,9
1042,198	44,83
1042,566	45,24
1042,933	45,22
1043,301	45,01
1043,668	45,15
1044,035	45,38
1044,402	45,66
1044,77	45,48
1045,137	45,65
1045,503	45,72
1045,87	46,52
1046,237	44,44
1046,604	44,83
1046,97	45,67
1047,337	45,79
1047,703	45,28
1048,07	45,5
1048,436	44,24
1048,802	45,11
1049,168	45,45
1049,534	45,78
1049,9	45,82
1050,266	45,77
1050,632	46,16
1050,998	46,48
1051,364	45,23
1051,729	45,31
1052,095	46,3
1052,46	45,43
1052,825	45,31
1053,191	45,46
1053,556	46,25
1053,921	46
1054,286	45,89
1054,651	45,07
1055,016	46,09
1055,381	45,16
1055,745	46,34
1056,11	46,3
1056,475	45,37
1056,839	45,6
1057,203	45,78
1057,568	45,05
1057,932	44,86
1058,296	44,91
1058,66	44,8
1059,024	45,53
1059,388	45,36
1059,752	45,82
1060,116	44,71
1060,48	46,57
1060,843	46,13
1061,207	45,39
1061,57	45,6
1061,934	46,77
1062,297	46,37
1062,66	46,73
1063,023	45,76
1063,386	45,11
1063,749	46,27
1064,112	45,06
1064,475	45,9
1064,838	44,93
1065,201	45,75
1065,563	45,94
1065,926	45,59
1066,288	46,1
1066,651	44,3
1067,013	45,92
1067,375	45,22
1067,737	46,49
1068,099	46,39
1068,461	45,53
1068,823	46,25
1069,185	46,64
1069,547	44,47
1069,909	46,72
1070,27	46,07
1070,632	45,21
1070,993	46,53
1071,355	45,67
1071,716	46,34
1072,077	46,12
1072,438	46,39
1072,799	45,98
1073,16	46,55
1073,521	45,79
1073,882	44,78
1074,243	45,88
1074,603	46,6
1074,964	46,71
1075,325	47,21
1075,685	46,51
1076,045	45,4
1076,406	46
1076,766	45,83
1077,126	45,15
1077,486	46,43
1077,846	44,42
1078,206	47,15
1078,566	45,68
1078,925	47,94
1079,285	45,34
1079,645	46,52
1080,004	45,64
1080,364	46,39
1080,723	46,45
1081,082	47,03
1081,442	45,82
1081,801	46,77
1082,16	46,19
1082,519	46,89
1082,878	46,1
1083,237	45,71
1083,595	46,56
1083,954	45,65
1084,313	45,91
1084,671	46,88
1085,03	46,66
1085,388	44,34
1085,746	45,42
1086,104	45,02
1086,463	45,86
1086,821	46,68
1087,179	47,22
1087,537	46,21
1087,894	44,9
1088,252	44,91
1088,61	47,22
1088,967	47,07
1089,325	45,88
1089,682	45,88
1090,04	46,19
1090,397	45,21
1090,754	45,85
1091,111	46,5
1091,469	45,4
1091,826	46,37
1092,182	45,25
1092,539	47,16
1092,896	45,66
1093,253	45,51
1093,609	46,25
1093,966	45,98
1094,322	44,4
1094,679	45,27
1095,035	45,78
1095,391	44,9
1095,748	47,59
1096,104	47,93
1096,46	46,57
1096,816	44,72
1097,171	45,87
1097,527	45,9
1097,883	47,21
1098,239	47,79
1098,594	46,49
1098,95	48,05
1099,305	45,48
1099,66	46,82
1100,016	46,39
1100,371	46,08
1100,726	46,82
1101,081	45,78
1101,436	46,44
1101,791	47,4
1102,146	44,79
1102,5	47,84
1102,855	46,12
1103,21	45,59
1103,564	48,66
1103,918	46,56
1104,273	45,76
1104,627	47,25
1104,981	45,32
1105,335	45,47
1105,69	47,67
1106,043	45,62
1106,397	43,68
1106,751	44,98
1107,105	48,12
1107,459	46,13
1107,812	47,79
1108,166	45,95
1108,519	46,65
1108,873	47,49
1109,226	45,92
1109,579	45,83
1109,932	48,03
1110,285	46,13
1110,638	46,67
1110,991	46,39
1111,344	43,57
1111,697	47,33
1112,05	47,06
1112,402	50,33
1112,755	48,36
1113,107	47,86
1113,46	47,38
1113,812	48,94
1114,164	47,79
1114,517	47,8
1114,869	67,52
1115,221	62,9
1115,573	59,43
1115,924	57,66
