Data from F_5__Relative__5__00136.txt Node

Date: Mon Jan 29 18:23:40 CET 2024
User: diatiterra
Spectrometer: HDX00911
Trigger mode: 0
Integration Time (sec): 6,000000E-3
Scans to average: 2
Nonlinearity correction enabled: false
Boxcar width: 0
Storing dark spectrum: false
XAxis mode: Wavelengths
Number of Pixels in Spectrum: 2068
>>>>>Begin Spectral Data<<<<<
194,468	66,67
195,025	51,33
195,581	76,6
196,138	64,62
196,694	54,6
197,251	41,78
197,807	57,2
198,363	46,55
198,919	45,91
199,474	46,79
200,03	38,6
200,586	41,84
201,141	42,32
201,696	43,6
202,251	41,7
202,806	52,26
203,361	49,12
203,916	53,77
204,471	48,59
205,025	47,5
205,58	44,44
206,134	48,15
206,688	54,71
207,242	44,56
207,796	44,75
208,35	40,79
208,904	36,27
209,457	48,74
210,011	43,71
210,564	47,22
211,117	45,07
211,67	44,01
212,223	37,67
212,776	46,82
213,329	38,14
213,881	43,93
214,434	46,21
214,986	44,44
215,538	41,03
216,09	43,28
216,642	46,67
217,194	46,36
217,746	43,77
218,297	42,95
218,849	40,19
219,4	46,5
219,951	46,18
220,502	42,51
221,053	40,13
221,604	46,31
222,155	55,56
222,705	49,5
223,256	46,76
223,806	43,2
224,356	51,81
224,906	41,85
225,456	40
226,006	42,28
226,556	44,16
227,106	46,15
227,655	38,68
228,204	47,7
228,754	41,03
229,303	38,98
229,852	45,42
230,401	44,8
230,949	56,03
231,498	49,25
232,047	46,46
232,595	49,65
233,143	50,76
233,691	54
234,239	42,91
234,787	45,8
235,335	47,96
235,883	46,24
236,43	45,19
236,978	47,27
237,525	43,28
238,072	49,08
238,619	34,59
239,166	45,79
239,713	52,79
240,26	55,81
240,806	52,13
241,353	42,05
241,899	43,37
242,445	54,55
242,991	47,74
243,537	49,5
244,083	45,82
244,629	45,27
245,174	47,39
245,72	41,14
246,265	53,71
246,81	49,27
247,355	45,22
247,9	42,56
248,445	49,31
248,99	37,37
249,534	49,37
250,079	47,76
250,623	45,08
251,168	47,99
251,712	46,81
252,256	53,82
252,8	49,31
253,343	42,68
253,887	49,32
254,43	49,44
254,974	50,35
255,517	42,62
256,06	40,07
256,603	44,53
257,146	42,76
257,689	46,84
258,232	50,96
258,774	40,59
259,317	44,32
259,859	43,91
260,401	46,59
260,943	45,9
261,485	50
262,027	42,76
262,569	50
263,11	45,13
263,652	44,85
264,193	43,21
264,734	47,22
265,275	38,55
265,816	50,72
266,357	51,08
266,898	46,42
267,438	40
267,979	47,64
268,519	42,96
269,059	46,81
269,6	44,91
270,14	42,24
270,68	45,98
271,219	42,11
271,759	53,73
272,298	40,73
272,838	44,57
273,377	40,74
273,916	43,32
274,455	44,44
274,994	45,68
275,533	45,05
276,072	42,11
276,61	40,27
277,149	31,52
277,687	45,91
278,225	48,29
278,763	41,67
279,301	49,81
279,839	48,55
280,377	39,42
280,914	39,56
281,452	53,25
281,989	54,27
282,526	43,73
283,064	43,4
283,601	53,03
284,137	48,18
284,674	48,3
285,211	42,81
285,747	43,39
286,284	40,7
286,82	46,45
287,356	48,11
287,892	49,47
288,428	49,49
288,964	49,82
289,5	49,32
290,035	46,4
290,571	51,12
291,106	46,55
291,641	41,38
292,176	43,61
292,711	45,52
293,246	40,43
293,781	42,38
294,315	49,26
294,85	43,43
295,384	51,48
295,918	43,55
296,453	43,11
296,987	45,17
297,52	43,49
298,054	48,53
298,588	52,76
299,121	46,52
299,655	37,89
300,188	48,67
300,721	48,62
301,254	46,62
301,787	44,72
302,32	53,03
302,853	43,21
303,385	46,52
303,918	46,32
304,45	46,72
304,982	48,21
305,514	49,82
306,046	39,3
306,578	38,21
307,11	46,47
307,641	48,36
308,173	46,47
308,704	46,36
309,236	43,07
309,767	48,33
310,298	39,37
310,829	48,29
311,359	48,4
311,89	45,91
312,421	46,38
312,951	48
313,481	51,81
314,012	43,59
314,542	45,55
315,072	46,91
315,601	52,31
316,131	44,16
316,661	43,75
317,19	41,99
317,72	50,18
318,249	42,23
318,778	49,43
319,307	45,95
319,836	46,98
320,365	47,56
320,893	45,39
321,422	42,16
321,95	41,85
322,479	46,71
323,007	40,94
323,535	52,08
324,063	57,09
324,591	43,33
325,118	44,76
325,646	51,54
326,173	48,57
326,701	49,45
327,228	42,49
327,755	48,03
328,282	46,42
328,809	43,7
329,336	44,29
329,862	46,54
330,389	48,81
330,915	45,04
331,441	42,71
331,968	41,92
332,494	36,12
333,02	39,42
333,545	43,68
334,071	40
334,597	34,8
335,122	36,45
335,648	40,66
336,173	39,27
336,698	39,38
337,223	46,42
337,748	31,93
338,272	36,63
338,797	39,81
339,322	35,22
339,846	33,59
340,37	33,33
340,894	36,99
341,419	44,97
341,942	35,23
342,466	32,76
342,99	38,46
343,514	38,64
344,037	37,38
344,56	36,68
345,084	31,86
345,607	37,08
346,13	36,31
346,653	37,11
347,175	43,55
347,698	31,55
348,221	34,3
348,743	36,15
349,265	34,82
349,787	36,57
350,309	33,33
350,831	28,06
351,353	38,36
351,875	32,3
352,397	31,96
352,918	33,05
353,439	35,23
353,961	30,99
354,482	33,99
355,003	33,78
355,524	33,42
356,044	34,56
356,565	32,67
357,086	30,03
357,606	29,88
358,126	33,09
358,646	29,1
359,167	33,17
359,687	31,13
360,206	29,16
360,726	26,57
361,246	37,83
361,765	27,85
362,285	32,94
362,804	28,22
363,323	24,31
363,842	34,76
364,361	25,54
364,88	36,92
365,398	28,92
365,917	32,85
366,435	29,83
366,954	28,06
367,472	30,28
367,99	25,05
368,508	27,54
369,026	26,94
369,544	25,64
370,061	30,58
370,579	27,02
371,096	26,46
371,613	25,5
372,131	25,53
372,648	28,34
373,165	28,77
373,681	23,12
374,198	25,57
374,715	27,08
375,231	22,89
375,747	27,11
376,264	23
376,78	29,19
377,296	24,68
377,812	23,29
378,327	22,37
378,843	26,14
379,359	22,03
379,874	23,5
380,389	23,25
380,905	22,41
381,42	21,41
381,935	23,33
382,449	24,02
382,964	23,63
383,479	22,22
383,993	21,88
384,508	21,78
385,022	23,92
385,536	18,68
386,05	20,97
386,564	19,62
387,078	19,9
387,592	19,27
388,105	20,85
388,619	20,65
389,132	18,54
389,645	19,55
390,158	20,3
390,671	19,4
391,184	17,36
391,697	18,64
392,21	19,9
392,722	17,78
393,235	17,68
393,747	17,71
394,259	16,1
394,771	18,32
395,283	16,4
395,795	17,93
396,307	15,65
396,818	16,79
397,33	15,47
397,841	17,98
398,353	14,97
398,864	14,04
399,375	13,58
399,886	14,81
400,397	14,56
400,907	16,6
401,418	13,77
401,928	14,48
402,439	14,3
402,949	13,81
403,459	13,88
403,969	14,85
404,479	12,41
404,989	13,17
405,498	12,49
406,008	11,67
406,517	10,46
407,027	10,58
407,536	10,22
408,045	9,51
408,554	9,59
409,063	9,57
409,572	9,31
410,08	8,91
410,589	8,44
411,097	9,08
411,606	8,25
412,114	7,97
412,622	7,63
413,13	7,87
413,638	7,2
414,145	6,43
414,653	6,83
415,16	7,06
415,668	7,22
416,175	6,55
416,682	6,19
417,189	6,65
417,696	6,35
418,203	6,24
418,71	6,17
419,216	5,69
419,723	5,95
420,229	5,54
420,735	5,54
421,242	6,16
421,748	6,12
422,254	5,64
422,759	5,12
423,265	5,2
423,771	5,23
424,276	5,66
424,781	5,08
425,287	5,35
425,792	5,29
426,297	5,36
426,802	5,33
427,306	5,26
427,811	5,04
428,316	5,37
428,82	5,01
429,324	4,85
429,829	5,04
430,333	4,38
430,837	4,98
431,34	4,8
431,844	4,86
432,348	4,56
432,851	4,56
433,355	4,99
433,858	4,33
434,361	4,75
434,864	4,85
435,367	4,28
435,87	4,48
436,373	4,97
436,876	4,4
437,378	4,38
437,88	4,51
438,383	4,98
438,885	4,76
439,387	4,25
439,889	4,43
440,391	4,69
440,892	4,7
441,394	4,66
441,896	4,62
442,397	4,48
442,898	4,41
443,399	4,77
443,9	4,66
444,401	4,73
444,902	4,52
445,403	4,39
445,903	4,75
446,404	4,58
446,904	4,55
447,405	4,5
447,905	4,61
448,405	4,42
448,905	4,72
449,404	4,55
449,904	4,5
450,404	4,33
450,903	4,57
451,403	4,42
451,902	4,44
452,401	4,41
452,9	4,44
453,399	4,5
453,898	4,77
454,396	4,63
454,895	4,64
455,393	4,33
455,892	4,64
456,39	4,85
456,888	4,4
457,386	4,51
457,884	4,5
458,382	4,37
458,879	4,85
459,377	4,47
459,874	4,48
460,372	4,6
460,869	4,44
461,366	4,38
461,863	4,46
462,36	4,48
462,857	4,55
463,353	4,5
463,85	4,67
464,346	4,61
464,843	4,63
465,339	4,25
465,835	4,46
466,331	4,89
466,827	4,52
467,323	4,53
467,818	4,44
468,314	4,5
468,809	4,38
469,305	4,5
469,8	4,59
470,295	4,59
470,79	4,64
471,285	4,51
471,78	4,36
472,274	4,29
472,769	4,31
473,263	4,46
473,758	4,65
474,252	4,5
474,746	4,37
475,24	4,46
475,734	4,7
476,228	4,67
476,721	4,57
477,215	4,73
477,708	4,64
478,202	4,63
478,695	4,36
479,188	4,46
479,681	4,38
480,174	4,39
480,667	4,43
481,159	4,56
481,652	4,63
482,144	4,4
482,637	4,72
483,129	4,75
483,621	4,44
484,113	4,69
484,605	4,66
485,097	4,58
485,588	4,76
486,08	4,62
486,571	4,69
487,063	4,7
487,554	4,47
488,045	4,67
488,536	4,63
489,027	4,77
489,518	4,9
490,008	4,96
490,499	4,78
490,989	4,76
491,48	4,79
491,97	4,93
492,46	4,89
492,95	4,94
493,44	4,79
493,93	4,81
494,419	5,18
494,909	4,97
495,398	5,05
495,888	5,24
496,377	5,02
496,866	5,11
497,355	5,19
497,844	5,3
498,333	5,18
498,821	5,31
499,31	5,36
499,798	5,35
500,287	5,39
500,775	5,41
501,263	5,6
501,751	5,86
502,239	5,96
502,727	6,03
503,215	5,83
503,702	6,26
504,19	6,15
504,677	6,21
505,164	6,45
505,651	6,4
506,139	6,51
506,625	6,86
507,112	6,94
507,599	7
508,086	7,32
508,572	7,21
509,058	7,2
509,545	7,67
510,031	7,68
510,517	7,8
511,003	8,42
511,489	8,21
511,974	8,46
512,46	8,59
512,946	8,8
513,431	9,09
513,916	9,32
514,401	9,61
514,887	9,8
515,371	9,85
515,856	10,21
516,341	10,57
516,826	11,07
517,31	11
517,795	11,31
518,279	11,53
518,763	12,01
519,247	12,09
519,731	12,73
520,215	12,94
520,699	13,15
521,182	13,29
521,666	13,57
522,149	13,63
522,633	14,39
523,116	14,84
523,599	15,01
524,082	14,93
524,565	15,52
525,048	15,59
525,53	15,92
526,013	16,09
526,495	16,22
526,978	16,95
527,46	17,38
527,942	17,26
528,424	17,53
528,906	17,4
529,388	17,79
529,87	17,92
530,351	18,02
530,833	18,44
531,314	18,61
531,795	18,97
532,277	19,02
532,758	19
533,238	19,16
533,719	19,7
534,2	19,37
534,681	19,6
535,161	19,81
535,642	20,04
536,122	20,05
536,602	20,19
537,082	20,3
537,562	20,36
538,042	20,2
538,522	20,53
539,001	20,39
539,481	19,89
539,96	20,17
540,44	20,41
540,919	20,69
541,398	20,77
541,877	20,74
542,356	20,73
542,835	20,71
543,313	20,85
543,792	20,66
544,27	20,9
544,749	21,2
545,227	20,75
545,705	20,94
546,183	20,93
546,661	21,14
547,139	21,06
547,616	21,17
548,094	21,15
548,571	21,48
549,049	21,28
549,526	21,25
550,003	21,31
550,48	21,23
550,957	21,37
551,434	21,57
551,911	21,51
552,387	21,36
552,864	21,33
553,34	21,55
553,817	21,68
554,293	21,2
554,769	21,09
555,245	21,35
555,721	21,3
556,197	21,42
556,672	21,4
557,148	21,07
557,623	21,55
558,099	21,15
558,574	21,03
559,049	21,28
559,524	21,26
559,999	21,16
560,474	20,82
560,948	20,85
561,423	21
561,897	20,77
562,372	20,75
562,846	20,8
563,32	20,34
563,794	20,14
564,268	19,95
564,742	20,07
565,216	20,03
565,69	19,97
566,163	19,66
566,636	19,57
567,11	19,47
567,583	19,09
568,056	19,23
568,529	19,12
569,002	18,85
569,475	18,66
569,947	18,64
570,42	18,08
570,892	17,95
571,365	17,93
571,837	17,84
572,309	17,69
572,781	17,64
573,253	17,2
573,725	17,16
574,197	17,03
574,668	16,74
575,14	16,55
575,611	16,33
576,082	16,39
576,554	16,27
577,025	16,56
577,496	16,04
577,967	15,94
578,437	15,84
578,908	15,39
579,379	15,31
579,849	15,27
580,319	15,07
580,79	15,11
581,26	15,17
581,73	14,76
582,2	14,78
582,669	14,48
583,139	14,65
583,609	14,33
584,078	14,33
584,548	14,03
585,017	14,06
585,486	13,97
585,955	14,04
586,424	13,95
586,893	14,03
587,362	13,88
587,83	13,84
588,299	13,54
588,767	13,63
589,236	13,55
589,704	13,49
590,172	13,25
590,64	13,37
591,108	13,09
591,576	13,17
592,043	13,13
592,511	13,05
592,978	12,88
593,446	13,11
593,913	13,09
594,38	12,95
594,847	12,71
595,314	12,88
595,781	12,8
596,248	12,72
596,715	12,89
597,181	12,7
597,647	12,83
598,114	12,6
598,58	12,75
599,046	12,61
599,512	12,76
599,978	12,46
600,444	12,59
600,91	12,42
601,375	12,59
601,841	12,46
602,306	12,33
602,771	12,28
603,236	12,27
603,702	12,26
604,167	12,19
604,631	12,07
605,096	12,08
605,561	12,13
606,025	11,98
606,49	11,98
606,954	11,78
607,418	11,58
607,882	11,67
608,347	11,61
608,81	11,37
609,274	11,59
609,738	11,33
610,202	11,36
610,665	11,19
611,128	11,16
611,592	11,12
612,055	10,81
612,518	10,93
612,981	10,9
613,444	10,62
613,907	10,54
614,369	10,35
614,832	10,49
615,294	10,21
615,757	10,27
616,219	10,23
616,681	10,25
617,143	10,16
617,605	10,07
618,067	9,97
618,529	9,76
618,99	9,84
619,452	9,89
619,913	9,81
620,375	9,82
620,836	9,68
621,297	9,6
621,758	9,52
622,219	9,36
622,68	9,39
623,14	9,48
623,601	9,24
624,061	9,35
624,522	9,33
624,982	9,28
625,442	9,33
625,902	9,25
626,362	9,24
626,822	9,2
627,282	9,15
627,742	9,07
628,201	9,23
628,661	9,09
629,12	9,07
629,579	9,01
630,038	9,12
630,497	9,09
630,956	9,14
631,415	9,08
631,874	9,01
632,332	8,9
632,791	8,92
633,249	8,94
633,708	8,96
634,166	8,91
634,624	8,76
635,082	8,8
635,54	8,66
635,998	8,68
636,455	8,67
636,913	8,57
637,37	8,53
637,828	8,31
638,285	8,34
638,742	8,34
639,199	8,04
639,656	7,98
640,113	7,99
640,57	7,82
641,027	7,92
641,483	7,79
641,94	7,57
642,396	7,68
642,852	7,53
643,309	7,38
643,765	7,27
644,221	7,28
644,676	7,07
645,132	7,07
645,588	6,99
646,043	6,8
646,499	6,79
646,954	6,8
647,409	6,59
647,864	6,63
648,319	6,46
648,774	6,36
649,229	6,35
649,684	6,31
650,139	6,22
650,593	6,15
651,047	6,16
651,502	6,23
651,956	6,12
652,41	6,1
652,864	6,07
653,318	6,1
653,772	5,95
654,225	5,98
654,679	5,85
655,133	5,86
655,586	5,85
656,039	5,77
656,492	5,78
656,946	5,72
657,399	5,65
657,851	5,65
658,304	5,57
658,757	5,6
659,209	5,5
659,662	5,35
660,114	5,28
660,567	5,21
661,019	5,21
661,471	5,15
661,923	5,06
662,375	5,05
662,826	5,07
663,278	4,92
663,73	5
664,181	5,04
664,632	4,99
665,084	4,89
665,535	4,88
665,986	4,89
666,437	4,84
666,888	4,85
667,338	4,79
667,789	4,84
668,24	4,92
668,69	4,82
669,14	4,88
669,591	4,87
670,041	4,83
670,491	4,88
670,941	4,9
671,391	4,97
671,84	4,95
672,29	5,07
672,74	5
673,189	5,05
673,638	5,17
674,088	5,29
674,537	5,18
674,986	5,24
675,435	5,33
675,883	5,41
676,332	5,35
676,781	5,56
677,229	5,54
677,678	5,68
678,126	5,82
678,574	5,8
679,022	5,94
679,47	6,04
679,918	5,96
680,366	6,12
680,814	6,21
681,261	6,21
681,709	6,31
682,156	6,43
682,604	6,6
683,051	6,53
683,498	6,58
683,945	6,71
684,392	6,83
684,839	6,97
685,286	6,96
685,732	7,05
686,179	7,12
686,625	7,21
687,071	7,31
687,518	7,43
687,964	7,62
688,41	7,68
688,856	8
689,301	8,2
689,747	8,34
690,193	8,53
690,638	8,79
691,084	9,04
691,529	9,28
691,974	9,78
692,419	10,02
692,864	10,56
693,309	10,88
693,754	11,28
694,199	11,76
694,643	12,11
695,088	12,54
695,532	13,05
695,977	13,5
696,421	14,25
696,865	14,58
697,309	15,25
697,753	15,75
698,197	16,19
698,64	16,86
699,084	17,37
699,527	17,85
699,971	18,57
700,414	19,05
700,857	19,57
701,3	20,2
701,743	20,63
702,186	21,17
702,629	21,86
703,072	22,22
703,515	23,02
703,957	23,55
704,399	23,85
704,842	24,3
705,284	24,85
705,726	25,67
706,168	26,14
706,61	26,36
707,052	27,04
707,494	27,31
707,935	27,97
708,377	28,45
708,818	28,94
709,26	29,35
709,701	30,05
710,142	30,37
710,583	30,83
711,024	31,14
711,465	31,54
711,905	32,12
712,346	32,48
712,787	32,9
713,227	33,51
713,667	33,76
714,108	34,23
714,548	34,63
714,988	35,31
715,428	35,38
715,868	35,86
716,307	36,3
716,747	36,99
717,186	36,97
717,626	37,44
718,065	37,58
718,504	38,01
718,944	38,37
719,383	38,55
719,822	39,11
720,261	39,64
720,699	39,76
721,138	40,04
721,576	40,52
722,015	40,65
722,453	40,8
722,892	41,66
723,33	41,58
723,768	41,84
724,206	41,94
724,644	42,54
725,081	42,61
725,519	42,83
725,957	43,1
726,394	43,45
726,832	43,56
727,269	44,08
727,706	44,1
728,143	44,34
728,58	44,16
729,017	44,56
729,454	44,71
729,89	44,47
730,327	45,13
730,764	45,34
731,2	45,32
731,636	45,45
732,072	45,32
732,509	46,05
732,945	46,09
733,38	46,2
733,816	46,18
734,252	46,35
734,688	46,55
735,123	46,47
735,559	46,73
735,994	46,82
736,429	46,89
736,864	47,15
737,299	46,85
737,734	46,92
738,169	47,08
738,604	47,11
739,038	47,47
739,473	47,46
739,907	47,55
740,342	47,71
740,776	47,38
741,21	47,59
741,644	47,62
742,078	47,51
742,512	47,98
742,946	47,67
743,379	47,6
743,813	47,79
744,246	47,85
744,68	47,6
745,113	47,83
745,546	47,72
745,979	47,95
746,412	48,1
746,845	48,05
747,278	47,65
747,711	47,95
748,143	47,66
748,576	47,9
749,008	47,87
749,441	47,89
749,873	47,78
750,305	47,95
750,737	47,65
751,169	47,65
751,601	47,83
752,032	47,65
752,464	47,62
752,896	47,68
753,327	47,97
753,758	47,62
754,19	47,48
754,621	47,45
755,052	47,76
755,483	47,66
755,914	47,58
756,344	47,58
756,775	47,4
757,206	47,77
757,636	47,59
758,066	47,53
758,497	47,44
758,927	47,45
759,357	47,53
759,787	47,43
760,217	47,27
760,647	47,39
761,076	47,41
761,506	47,56
761,935	47,28
762,365	47
762,794	46,88
763,223	47,27
763,653	47,55
764,082	47,19
764,51	46,94
764,939	46,93
765,368	47,01
765,797	47,09
766,225	47,34
766,654	47,02
767,082	47,31
767,51	47,13
767,938	47,19
768,367	46,82
768,795	46,62
769,222	47,08
769,65	46,9
770,078	47,05
770,505	46,94
770,933	46,97
771,36	46,65
771,788	46,7
772,215	46,69
772,642	46,72
773,069	47,04
773,496	46,63
773,923	46,98
774,349	46,77
774,776	46,86
775,203	46,53
775,629	46,99
776,055	46,67
776,482	46,87
776,908	46,48
777,334	46,38
777,76	46,65
778,186	46,33
778,611	46,37
779,037	46,53
779,463	46,44
779,888	46,31
780,314	46,44
780,739	46,47
781,164	46,3
781,589	46,56
782,014	46,65
782,439	46,53
782,864	46,46
783,289	46,29
783,713	46,21
784,138	46,37
784,562	46,37
784,987	46,27
785,411	46,06
785,835	46,16
786,259	46,26
786,683	46,41
787,107	46,45
787,531	46,23
787,954	46,43
788,378	46,18
788,802	46,05
789,225	46,11
789,648	46,28
790,071	46,4
790,495	46,42
790,918	46,17
791,34	46,04
791,763	46,33
792,186	46,34
792,609	46,23
793,031	46,15
793,454	46,07
793,876	46,24
794,298	46,1
794,721	46,06
795,143	46,06
795,565	45,83
795,986	46,11
796,408	46,33
796,83	46,11
797,252	45,96
797,673	46,28
798,094	46,1
798,516	46,13
798,937	45,95
799,358	46,18
799,779	46,36
800,2	46,09
800,621	46,07
801,042	46,35
801,462	46,16
801,883	45,97
802,303	45,83
802,724	45,79
803,144	46,13
803,564	46,15
803,984	45,86
804,404	45,98
804,824	46,1
805,244	46,13
805,664	46,23
806,084	46,02
806,503	46,06
806,923	45,98
807,342	46,29
807,761	45,74
808,18	45,92
808,599	45,85
809,018	45,85
809,437	45,71
809,856	46,02
810,275	45,99
810,693	45,99
811,112	46,11
811,53	46,02
811,949	46,11
812,367	45,99
812,785	45,92
813,203	45,96
813,621	46,15
814,039	45,88
814,457	45,93
814,874	46,03
815,292	45,81
815,709	45,98
816,127	45,75
816,544	46,01
816,961	46,01
817,378	46,06
817,795	45,81
818,212	45,94
818,629	45,68
819,046	46,07
819,462	46,09
819,879	45,95
820,295	45,98
820,712	45,85
821,128	45,81
821,544	45,61
821,96	46,03
822,376	45,72
822,792	45,92
823,208	45,84
823,624	45,71
824,039	45,99
824,455	46,28
824,87	46,09
825,286	45,64
825,701	45,66
826,116	45,93
826,531	45,69
826,946	45,87
827,361	45,91
827,776	46,03
828,19	45,81
828,605	45,76
829,02	45,87
829,434	45,8
829,848	45,72
830,263	46,01
830,677	45,76
831,091	45,79
831,505	45,96
831,919	45,93
832,332	45,71
832,746	45,69
833,16	45,6
833,573	45,49
833,987	45,48
834,4	45,74
834,813	45,93
835,226	45,61
835,639	45,59
836,052	45,78
836,465	45,82
836,878	45,81
837,29	45,55
837,703	45,67
838,116	45,92
838,528	45,98
838,94	45,53
839,352	45,99
839,765	45,62
840,177	45,65
840,589	45,45
841	45,54
841,412	45,64
841,824	45,66
842,235	45,76
842,647	45,57
843,058	45,67
843,47	45,74
843,881	45,4
844,292	45,57
844,703	45,36
845,114	45,57
845,525	46,01
845,935	45,79
846,346	45,3
846,757	45,52
847,167	45,86
847,577	45,45
847,988	45,91
848,398	46
848,808	45,73
849,218	45,84
849,628	45,59
850,038	45,68
850,448	45,52
850,857	45,51
851,267	45,83
851,676	45,93
852,086	45,64
852,495	45,61
852,904	45,52
853,313	45,72
853,722	45,48
854,131	45,76
854,54	45,6
854,949	45,72
855,357	45,48
855,766	45,39
856,174	45,34
856,583	45,53
856,991	45,66
857,399	45,69
857,807	45,51
858,215	45,78
858,623	45,53
859,031	45,92
859,439	45,47
859,846	45,75
860,254	45,39
860,661	45,59
861,069	45,69
861,476	45,46
861,883	45,62
862,29	45,51
862,697	45,58
863,104	45,52
863,511	45,32
863,918	45,45
864,325	45,6
864,731	45,57
865,138	45,36
865,544	45,63
865,95	45,69
866,357	45,69
866,763	46,11
867,169	44,99
867,575	45,59
867,98	45,29
868,386	45,76
868,792	45,57
869,197	45,77
869,603	45,51
870,008	45,45
870,414	45,5
870,819	45,73
871,224	45,57
871,629	45,43
872,034	45,48
872,439	45,8
872,844	45,44
873,248	45,5
873,653	45,49
874,057	45,78
874,462	45,65
874,866	45,56
875,27	45,73
875,674	45,88
876,078	45,45
876,482	45,67
876,886	45,53
877,29	45,84
877,694	45,82
878,097	45,96
878,501	45,57
878,904	45,36
879,308	45,81
879,711	45,68
880,114	45,62
880,517	45,44
880,92	45,51
881,323	45,67
881,726	45,49
882,128	45,97
882,531	45,82
882,934	45,55
883,336	45,42
883,738	45,63
884,141	45,64
884,543	45,57
884,945	45,74
885,347	45,58
885,749	45,85
886,151	45,59
886,552	45,61
886,954	45,39
887,355	45,97
887,757	45,75
888,158	45,42
888,56	45,63
888,961	45,76
889,362	45,74
889,763	45,65
890,164	45,69
890,565	45,71
890,965	45,57
891,366	45,54
891,767	45,54
892,167	45,92
892,567	45,48
892,968	45,34
893,368	45,6
893,768	45,77
894,168	45,61
894,568	45,7
894,968	45,68
895,368	45,4
895,767	45,68
896,167	45,63
896,566	45,47
896,966	45,51
897,365	45,9
897,764	45,49
898,164	45,52
898,563	45,64
898,962	45,31
899,361	45,7
899,759	45,29
900,158	45,64
900,557	45,73
900,955	45,71
901,354	45,79
901,752	45,65
902,15	45,86
902,548	45,52
902,947	45,46
903,345	45,6
903,742	45,85
904,14	45,48
904,538	45,82
904,936	45,77
905,333	45,66
905,731	45,68
906,128	45,66
906,525	46,08
906,923	45,75
907,32	45,67
907,717	45,37
908,114	45,56
908,511	45,5
908,907	45,64
909,304	46,1
909,701	45,49
910,097	45,75
910,494	45,56
910,89	45,37
911,286	45,91
911,682	45,64
912,078	45,36
912,474	45,5
912,87	45,41
913,266	45,81
913,662	45,49
914,058	45,33
914,453	45,68
914,849	45,41
915,244	45,14
915,639	45,4
916,034	45,43
916,43	45,39
916,825	45,48
917,22	45,47
917,614	45,38
918,009	45,7
918,404	45,51
918,798	45,8
919,193	45,76
919,587	45,67
919,982	45,47
920,376	45,41
920,77	45,81
921,164	46,22
921,558	45,58
921,952	45,69
922,346	45,81
922,74	46,02
923,133	45,7
923,527	45,27
923,92	45,31
924,314	45,73
924,707	45,43
925,1	45,52
925,493	45,46
925,886	45,46
926,279	46,04
926,672	45,61
927,065	45,61
927,457	45,52
927,85	45,88
928,243	45,31
928,635	45,92
929,027	45,04
929,42	45,47
929,812	45,37
930,204	45,41
930,596	45,36
930,988	45,2
931,379	45,31
931,771	45,34
932,163	45,43
932,554	45,09
932,946	45,66
933,337	45,22
933,729	45,42
934,12	45,2
934,511	45,42
934,902	44,82
935,293	45,89
935,684	45,23
936,075	45,16
936,465	45,43
936,856	44,59
937,246	44,73
937,637	45,23
938,027	45,34
938,417	45
938,808	45,59
939,198	45,34
939,588	45,08
939,978	45,26
940,368	45,04
940,757	44,81
941,147	45,04
941,537	44,7
941,926	45,64
942,315	45,78
942,705	45,1
943,094	44,81
943,483	45,19
943,872	45,2
944,261	45,05
944,65	45,13
945,039	45,03
945,428	45,92
945,816	43,73
946,205	44,76
946,593	45
946,982	44,5
947,37	45,08
947,758	45,04
948,146	44,42
948,534	45,41
948,922	44,58
949,31	45,32
949,698	44,58
950,086	43,92
950,473	44,92
950,861	44,76
951,248	45,37
951,636	44,17
952,023	44,39
952,41	44,11
952,797	44,81
953,184	44,54
953,571	44,3
953,958	44,79
954,345	44,23
954,731	43,73
955,118	44,6
955,505	44,35
955,891	44,49
956,277	43,94
956,664	44,1
957,05	43,74
957,436	43,81
957,822	44,07
958,208	44,31
958,594	44,27
958,979	44,23
959,365	44
959,751	44,05
960,136	43,97
960,522	44,07
960,907	43,7
961,292	43,85
961,677	44,3
962,062	44,06
962,447	43,99
962,832	44,19
963,217	44,08
963,602	44,41
963,986	44,15
964,371	43,87
964,756	44,04
965,14	44,1
965,524	44,31
965,908	43,89
966,293	43,79
966,677	44,13
967,061	43,79
967,445	43,73
967,828	44,67
968,212	44,07
968,596	44,21
968,979	43,87
969,363	43,98
969,746	44,02
970,129	43,62
970,513	43,84
970,896	44,42
971,279	44,26
971,662	43,22
972,045	44,19
972,428	43,55
972,81	44,07
973,193	44,54
973,575	44
973,958	43,94
974,34	44,44
974,723	43,92
975,105	43,79
975,487	44,27
975,869	44,18
976,251	43,98
976,633	44,22
977,015	44,37
977,396	44,1
977,778	44,58
978,16	44,24
978,541	43,43
978,922	44,04
979,304	44,3
979,685	43,86
980,066	44,21
980,447	43,84
980,828	44,02
981,209	43,92
981,59	43,66
981,97	43,9
982,351	43,88
982,732	44,54
983,112	45,26
983,493	44,19
983,873	43,96
984,253	44,63
984,633	44,04
985,013	44,45
985,393	44,45
985,773	43,95
986,153	44,59
986,533	44,16
986,912	44,87
987,292	44,62
987,671	44,21
988,051	44,51
988,43	44,06
988,809	44,37
989,188	44,16
989,567	44,19
989,946	44,21
990,325	44,43
990,704	44,09
991,083	44,22
991,461	44,16
991,84	44,61
992,218	44,78
992,597	43,98
992,975	44,36
993,353	44,11
993,732	44,32
994,11	44,74
994,488	44
994,866	44,36
995,243	44,54
995,621	44,2
995,999	43,97
996,376	44,41
996,754	44,42
997,131	45,12
997,509	44,36
997,886	44,43
998,263	43,95
998,64	43,96
999,017	44,12
999,394	44,43
999,771	44,19
1000,148	44,44
1000,524	44,57
1000,901	45,01
1001,277	44,64
1001,654	44,15
1002,03	44,71
1002,406	44,12
1002,783	44,6
1003,159	44,6
1003,535	44,14
1003,911	44,32
1004,286	44,01
1004,662	44,59
1005,038	44,39
1005,414	44,76
1005,789	44,66
1006,164	44,46
1006,54	44,84
1006,915	44,87
1007,29	44,44
1007,665	44,7
1008,04	44,13
1008,415	44,53
1008,79	45,28
1009,165	44,54
1009,54	44,63
1009,914	44,72
1010,289	44,84
1010,663	45,31
1011,038	44,61
1011,412	44,79
1011,786	44,92
1012,16	44,95
1012,535	44,94
1012,909	44,75
1013,282	44,7
1013,656	44,43
1014,03	44,72
1014,404	45,5
1014,777	44,78
1015,151	44,63
1015,524	45,36
1015,897	45,81
1016,271	44,83
1016,644	45,25
1017,017	44,76
1017,39	45,1
1017,763	44,63
1018,136	45,28
1018,508	45
1018,881	44,25
1019,254	45,11
1019,626	45,15
1019,999	45,35
1020,371	45,09
1020,743	44,9
1021,116	44,7
1021,488	45,14
1021,86	44,79
1022,232	45,67
1022,604	44,16
1022,975	45,33
1023,347	44,86
1023,719	45,19
1024,09	44,62
1024,462	45,19
1024,833	45,14
1025,204	45,26
1025,576	45,04
1025,947	45,02
1026,318	45,6
1026,689	45,13
1027,06	45,37
1027,431	44,31
1027,801	45,34
1028,172	45,38
1028,543	46,08
1028,913	45,26
1029,284	45,22
1029,654	44,34
1030,024	45,03
1030,394	45,92
1030,764	45,45
1031,135	45,26
1031,504	45,59
1031,874	45,2
1032,244	46,12
1032,614	45,65
1032,983	44,61
1033,353	45,52
1033,722	44,98
1034,092	45,26
1034,461	44,43
1034,83	44,68
1035,2	45,09
1035,569	45,84
1035,938	45,58
1036,307	45,73
1036,675	45,49
1037,044	44,75
1037,413	44,9
1037,781	45,1
1038,15	44,67
1038,518	45,53
1038,887	45,43
1039,255	45,13
1039,623	45,27
1039,991	46,01
1040,359	44,75
1040,727	45,3
1041,095	45,36
1041,463	45,56
1041,831	45,18
1042,198	45,89
1042,566	45,37
1042,933	45,53
1043,301	45,58
1043,668	45,04
1044,035	45,48
1044,402	45,73
1044,77	45,66
1045,137	46,29
1045,503	45,26
1045,87	45,88
1046,237	45,75
1046,604	44,91
1046,97	45,87
1047,337	45,97
1047,703	45,64
1048,07	45,74
1048,436	45,98
1048,802	45,31
1049,168	45,64
1049,534	45,61
1049,9	46,2
1050,266	46,71
1050,632	45,84
1050,998	46
1051,364	45,97
1051,729	46,42
1052,095	46,14
1052,46	46,27
1052,825	44,86
1053,191	45,9
1053,556	45,44
1053,921	45,93
1054,286	46,07
1054,651	46,05
1055,016	46,09
1055,381	46,01
1055,745	45,85
1056,11	46,72
1056,475	45,52
1056,839	45,94
1057,203	45,95
1057,568	45,38
1057,932	45,83
1058,296	45,87
1058,66	45,85
1059,024	45,8
1059,388	45,74
1059,752	45,64
1060,116	46,51
1060,48	46,24
1060,843	46,23
1061,207	45,86
1061,57	46,29
1061,934	46,5
1062,297	46,86
1062,66	46,17
1063,023	46,21
1063,386	44,79
1063,749	46,07
1064,112	45,12
1064,475	45,32
1064,838	45,23
1065,201	46,38
1065,563	45,35
1065,926	45,67
1066,288	46,13
1066,651	44,47
1067,013	44,81
1067,375	46,34
1067,737	45,37
1068,099	46,59
1068,461	45,33
1068,823	46,35
1069,185	46,64
1069,547	45,29
1069,909	45,43
1070,27	46,38
1070,632	44,41
1070,993	45,37
1071,355	46,18
1071,716	45,25
1072,077	45,76
1072,438	47,87
1072,799	46,59
1073,16	47,42
1073,521	45,42
1073,882	46,29
1074,243	45,08
1074,603	45,64
1074,964	46,26
1075,325	47,05
1075,685	47,05
1076,045	44,62
1076,406	44,69
1076,766	46,38
1077,126	46,11
1077,486	45,53
1077,846	46,06
1078,206	46,65
1078,566	46,02
1078,925	45,82
1079,285	45,63
1079,645	46,03
1080,004	45,61
1080,364	45,2
1080,723	44,52
1081,082	45,89
1081,442	45,08
1081,801	46,16
1082,16	47,56
1082,519	46,05
1082,878	45,48
1083,237	43,96
1083,595	46,97
1083,954	45,96
1084,313	45,68
1084,671	47,25
1085,03	46,75
1085,388	45,48
1085,746	46,35
1086,104	45,98
1086,463	45,41
1086,821	46,02
1087,179	47,28
1087,537	47,26
1087,894	43,96
1088,252	44,64
1088,61	46,66
1088,967	47,68
1089,325	45,27
1089,682	44,88
1090,04	45,62
1090,397	45,93
1090,754	46,99
1091,111	46,67
1091,469	45,19
1091,826	46,2
1092,182	47,25
1092,539	46,34
1092,896	47,23
1093,253	45,58
1093,609	47,53
1093,966	45,58
1094,322	46,64
1094,679	44,91
1095,035	45,44
1095,391	46,7
1095,748	47,36
1096,104	46,41
1096,46	46,64
1096,816	45,89
1097,171	46,44
1097,527	45,06
1097,883	46,05
1098,239	47,54
1098,594	46,49
1098,95	47,88
1099,305	46,91
1099,66	46,05
1100,016	46,87
1100,371	47,54
1100,726	45,23
1101,081	46
1101,436	45,16
1101,791	46,54
1102,146	44,02
1102,5	45,67
1102,855	47,02
1103,21	47,57
1103,564	45,8
1103,918	46,71
1104,273	46,01
1104,627	47,2
1104,981	45,02
1105,335	47,66
1105,69	46,31
1106,043	47,97
1106,397	47,59
1106,751	47,01
1107,105	48,01
1107,459	45,8
1107,812	45,22
1108,166	45,32
1108,519	45,71
1108,873	47,01
1109,226	45,08
1109,579	48,71
1109,932	42,86
1110,285	44,55
1110,638	45,3
1110,991	47,69
1111,344	48,53
1111,697	48,85
1112,05	47,65
1112,402	46,64
1112,755	47,38
1113,107	46,43
1113,46	46,49
1113,812	46,83
1114,164	46,44
1114,517	45,04
1114,869	66,67
1115,221	61,29
1115,573	51,89
1115,924	56,93
