Data from G_2__Relative__8__00147.txt Node

Date: Mon Jan 29 18:25:08 CET 2024
User: diatiterra
Spectrometer: HDX00911
Trigger mode: 0
Integration Time (sec): 6,000000E-3
Scans to average: 2
Nonlinearity correction enabled: false
Boxcar width: 0
Storing dark spectrum: false
XAxis mode: Wavelengths
Number of Pixels in Spectrum: 2068
>>>>>Begin Spectral Data<<<<<
194,468	68,63
195,025	64,6
195,581	58,51
196,138	53,08
196,694	66,09
197,251	50,67
197,807	57,2
198,363	58,91
198,919	47,33
199,474	51,07
200,03	40,44
200,586	45,24
201,141	52,81
201,696	48,44
202,251	48,71
202,806	53,76
203,361	49,82
203,916	57,53
204,471	49,3
205,025	43,21
205,58	53,41
206,134	54,44
206,688	46,74
207,242	45,92
207,796	45,42
208,35	45,85
208,904	46,78
209,457	55,23
210,011	52,45
210,564	49,31
211,117	47,54
211,67	50,35
212,223	43,15
212,776	52,43
213,329	45,02
213,881	46,07
214,434	44,83
214,986	47,81
215,538	46,15
216,09	45,57
216,642	58,89
217,194	48,34
217,746	46,46
218,297	44,3
218,849	43,93
219,4	50
219,951	50,55
220,502	50,52
221,053	46,08
221,604	46,98
222,155	50,21
222,705	49,5
223,256	46,76
223,806	53,74
224,356	51,45
224,906	44,81
225,456	48,97
226,006	43,96
226,556	51,82
227,106	47,9
227,655	52,61
228,204	48,68
228,754	48,28
229,303	49,49
229,852	50,33
230,401	51,61
230,949	57,59
231,498	54,85
232,047	48,15
232,595	53,55
233,143	49,62
233,691	49,2
234,239	53,73
234,787	46,5
235,335	51,7
235,883	49,82
236,43	55,19
236,978	52,73
237,525	48,51
238,072	49,45
238,619	48,29
239,166	47,14
239,713	44,98
240,26	50,56
240,806	41,84
241,353	52,65
241,899	52,75
242,445	57,34
242,991	50,87
243,537	52,48
244,083	54,91
244,629	45,27
245,174	62,69
245,72	54,52
246,265	51,59
246,81	55,11
247,355	49,26
247,9	46,71
248,445	53,45
248,99	49,48
249,534	56,65
250,079	56,34
250,623	52,54
251,168	58,05
251,712	57,09
252,256	57,14
252,8	58,33
253,343	51,91
253,887	48,3
254,43	63,57
254,974	54,55
255,517	57,38
256,06	48,29
256,603	55,47
257,146	51,18
257,689	52,22
258,232	51,34
258,774	49,82
259,317	49,82
259,859	59,04
260,401	58,71
260,943	52,61
261,485	60,28
262,027	55,52
262,569	51,5
263,11	55,23
263,652	55,51
264,193	55,71
264,734	54,76
265,275	49,8
265,816	51,8
266,357	61,87
266,898	44,71
267,438	53,73
267,979	53,09
268,519	47,29
269,059	51,06
269,6	52,63
270,14	46,86
270,68	47,13
271,219	52,98
271,759	51,87
272,298	47,64
272,838	56,98
273,377	53,7
273,916	50,9
274,455	49,43
274,994	44,6
275,533	54,27
276,072	45,86
276,61	53,24
277,149	43,84
277,687	52,31
278,225	52,4
278,763	55,8
279,301	56,23
279,839	42,75
280,377	39,42
280,914	46,89
281,452	58,54
281,989	54,27
282,526	50,9
283,064	53,47
283,601	56,06
284,137	51,46
284,674	50,19
285,211	43,88
285,747	47,8
286,284	46,32
286,82	55,67
287,356	52,58
287,892	50,88
288,428	43,73
288,964	48,01
289,5	52,04
290,035	51,44
290,571	47,01
291,106	47,27
291,641	50,19
292,176	53,76
292,711	47,59
293,246	51,26
293,781	42,75
294,315	55,15
294,85	54,01
295,384	52,59
295,918	53,31
296,453	50,18
296,987	51,72
297,52	47,6
298,054	45,96
298,588	49,61
299,121	48,72
299,655	52,63
300,188	50,57
300,721	47,93
301,254	50,53
301,787	43,9
302,32	54,92
302,853	42,86
303,385	49,82
303,918	51,93
304,45	49,81
304,982	48,61
305,514	49,45
306,046	42,81
306,578	56,07
307,11	48,33
307,641	49,09
308,173	52,04
308,704	50,57
309,236	43,07
309,767	50,42
310,298	42,86
310,829	54,75
311,359	47,33
311,89	55,16
312,421	48,91
312,951	50,91
313,481	48,59
314,012	46,15
314,542	44,86
315,072	51,64
315,601	54,8
316,131	44,16
316,661	57,5
317,19	48,75
317,72	52,01
318,249	45,95
318,778	43,73
319,307	44,59
319,836	47,65
320,365	44,3
320,893	45,39
321,422	45,15
321,95	46,3
322,479	57,79
323,007	46,38
323,535	52,45
324,063	53,36
324,591	41
325,118	48,25
325,646	55,38
326,173	47,5
326,701	53,09
327,228	48,24
327,755	45,88
328,282	49,43
328,809	44,44
329,336	41,87
329,862	56,54
330,389	46,08
330,915	45,74
331,441	44,07
331,968	42,27
332,494	37,79
333,02	41,97
333,545	41,52
334,071	45,33
334,597	52,36
335,122	42,47
335,648	47,25
336,173	47,52
336,698	46,58
337,223	54,61
337,748	46,67
338,272	44,55
338,797	44,98
339,322	43,52
339,846	38,67
340,37	42,12
340,894	45,55
341,419	45,64
341,942	52,68
342,466	44,03
342,99	41,23
343,514	36,36
344,037	39,02
344,56	41,69
345,084	42,9
345,607	44,98
346,13	42,15
346,653	45,91
347,175	50,65
347,698	38,69
348,221	45,64
348,743	45,48
349,265	39,88
349,787	42
350,309	40,5
350,831	41,49
351,353	43,12
351,875	42,98
352,397	38,02
352,918	35,03
353,439	40,92
353,961	35,77
354,482	40,17
355,003	42,36
355,524	38,52
356,044	40,63
356,565	37,66
357,086	35,62
357,606	35,66
358,126	40,63
358,646	38,56
359,167	40,79
359,687	37,97
360,206	39,04
360,726	35,36
361,246	37,11
361,765	37,5
362,285	35,31
362,804	38,44
363,323	33,49
363,842	37,38
364,361	35,5
364,88	40,51
365,398	30,46
365,917	40,25
366,435	42,27
366,954	33,67
367,472	37,95
367,99	41,07
368,508	37,7
369,026	32,95
369,544	34,18
370,061	36,2
370,579	32,83
371,096	35,4
371,613	37,06
372,131	36,27
372,648	34,84
373,165	37,09
373,681	32,05
374,198	33,93
374,715	35,59
375,231	33,39
375,747	32,56
376,264	36,1
376,78	34,29
377,296	37,82
377,812	32,64
378,327	31,85
378,843	34,56
379,359	31,74
379,874	34,02
380,389	33,84
380,905	34,48
381,42	34,86
381,935	32,27
382,449	30,37
382,964	33,62
383,479	33,72
383,993	32,09
384,508	31,62
385,022	31,97
385,536	28,41
386,05	30,02
386,564	28,75
387,078	28,27
387,592	30,1
388,105	28,12
388,619	27,43
389,132	29,37
389,645	28,21
390,158	26,42
390,671	30,28
391,184	26,13
391,697	27,56
392,21	28,65
392,722	25,73
393,235	26,02
393,747	25,41
394,259	25,04
394,771	25,25
395,283	24,68
395,795	24,77
396,307	25,1
396,818	24,13
397,33	23,76
397,841	23,14
398,353	24,15
398,864	21,63
399,375	20,15
399,886	22,09
400,397	20,73
400,907	19,93
401,418	20,62
401,928	20,17
402,439	20
402,949	19,77
403,459	19,69
403,969	19,16
404,479	18,8
404,989	17,52
405,498	17,11
406,008	15,4
406,517	16,69
407,027	16,54
407,536	14,21
408,045	14,71
408,554	13,67
409,063	13,75
409,572	13,67
410,08	13,26
410,589	12,92
411,097	12,77
411,606	12,03
412,114	12,6
412,622	11,82
413,13	11,42
413,638	10,76
414,145	11,3
414,653	10,85
415,16	10,23
415,668	9,72
416,175	9,86
416,682	9,4
417,189	9,69
417,696	9,66
418,203	9,82
418,71	9,49
419,216	9,12
419,723	8,9
420,229	9,04
420,735	8,59
421,242	9,04
421,748	8,84
422,254	8,38
422,759	8,33
423,265	8,61
423,771	7,93
424,276	7,92
424,781	8,32
425,287	8,46
425,792	8,1
426,297	8,25
426,802	7,88
427,306	7,8
427,811	7,97
428,316	8,36
428,82	7,21
429,324	8,04
429,829	8,1
430,333	7,94
430,837	7,48
431,34	7,55
431,844	7,76
432,348	7,19
432,851	7,6
433,355	7,56
433,858	7,08
434,361	7,23
434,864	7,24
435,367	7,63
435,87	7,08
436,373	7,51
436,876	7,15
437,378	7,08
437,88	7,12
438,383	7,36
438,885	7,34
439,387	7,22
439,889	7,12
440,391	7,79
440,892	7
441,394	6,95
441,896	7,08
442,397	6,79
442,898	6,87
443,399	7,54
443,9	6,89
444,401	7,46
444,902	7,07
445,403	7,09
445,903	7,12
446,404	7,4
446,904	7,31
447,405	6,86
447,905	7,43
448,405	7,18
448,905	7,67
449,404	7,41
449,904	7,69
450,404	7,27
450,903	7,45
451,403	7,5
451,902	7,68
452,401	7,69
452,9	7,61
453,399	7,39
453,898	7,8
454,396	7,47
454,895	7,56
455,393	7,61
455,892	7,77
456,39	7,59
456,888	7,41
457,386	7,71
457,884	7,78
458,382	7,84
458,879	7,5
459,377	7,63
459,874	7,8
460,372	7,72
460,869	7,88
461,366	8,02
461,863	7,7
462,36	7,71
462,857	7,72
463,353	7,65
463,85	8,15
464,346	7,78
464,843	7,79
465,339	8,01
465,835	7,48
466,331	7,72
466,827	7,59
467,323	7,7
467,818	7,25
468,314	7,66
468,809	7,71
469,305	7,72
469,8	7,73
470,295	7,75
470,79	7,56
471,285	7,7
471,78	7,71
472,274	7,71
472,769	8
473,263	7,96
473,758	7,83
474,252	7,89
474,746	7,85
475,24	7,94
475,734	7,91
476,228	8,06
476,721	7,86
477,215	7,57
477,708	7,88
478,202	7,86
478,695	7,66
479,188	8,03
479,681	7,76
480,174	7,83
480,667	7,81
481,159	7,94
481,652	8,18
482,144	7,98
482,637	7,84
483,129	7,82
483,621	7,75
484,113	8,3
484,605	8,02
485,097	8,21
485,588	8,22
486,08	8,02
486,571	8,22
487,063	8,48
487,554	8,13
488,045	8,43
488,536	7,94
489,027	8,26
489,518	8,43
490,008	8,4
490,499	8,43
490,989	7,96
491,48	8,54
491,97	8,48
492,46	8,5
492,95	8,61
493,44	8,71
493,93	8,89
494,419	8,57
494,909	8,95
495,398	8,98
495,888	8,83
496,377	9,15
496,866	8,98
497,355	9,1
497,844	9,1
498,333	9,13
498,821	9,37
499,31	9,52
499,798	9,77
500,287	9,45
500,775	9,92
501,263	9,72
501,751	10,04
502,239	10
502,727	10,37
503,215	10,37
503,702	10,74
504,19	10,78
504,677	10,71
505,164	11,28
505,651	11,14
506,139	11,28
506,625	11,55
507,112	11,72
507,599	11,99
508,086	12,04
508,572	12,32
509,058	12,19
509,545	12,75
510,031	12,83
510,517	13,02
511,003	13,44
511,489	13,75
511,974	13,72
512,46	14,15
512,946	14,38
513,431	14,61
513,916	15,11
514,401	15,04
514,887	15,39
515,371	16,05
515,856	15,86
516,341	16,44
516,826	16,7
517,31	17,05
517,795	17,27
518,279	17,74
518,763	18,29
519,247	18,08
519,731	18,72
520,215	19,27
520,699	19,68
521,182	20
521,666	20,55
522,149	20,51
522,633	21,17
523,116	21,25
523,599	21,3
524,082	21,94
524,565	22,3
525,048	22,62
525,53	22,82
526,013	23,25
526,495	23,76
526,978	23,62
527,46	24,14
527,942	24,31
528,424	24,5
528,906	24,61
529,388	24,97
529,87	25,31
530,351	25,36
530,833	25,81
531,314	25,56
531,795	26,58
532,277	26,55
532,758	25,74
533,238	26,49
533,719	26,61
534,2	27,28
534,681	26,5
535,161	27,53
535,642	26,96
536,122	27,31
536,602	27,42
537,082	27,44
537,562	27,85
538,042	27,5
538,522	28,16
539,001	27,88
539,481	27,75
539,96	27,92
540,44	28,16
540,919	28,03
541,398	28,43
541,877	27,89
542,356	28,13
542,835	28,09
543,313	28,55
543,792	28,2
544,27	28,24
544,749	28,82
545,227	28,2
545,705	28,39
546,183	28,44
546,661	28,74
547,139	28,65
547,616	28,73
548,094	29,11
548,571	28,77
549,049	28,83
549,526	28,97
550,003	28,8
550,48	28,94
550,957	28,91
551,434	28,59
551,911	29,15
552,387	28,85
552,864	29,43
553,34	28,93
553,817	29,1
554,293	29,18
554,769	28,99
555,245	28,85
555,721	29,13
556,197	29,3
556,672	28,92
557,148	28,83
557,623	28,87
558,099	28,73
558,574	28,74
559,049	28,91
559,524	28,99
559,999	28,59
560,474	28,28
560,948	28,59
561,423	28,47
561,897	28,57
562,372	28,16
562,846	27,93
563,32	28,03
563,794	27,85
564,268	27,73
564,742	27,32
565,216	27,61
565,69	27,57
566,163	27,08
566,636	27,56
567,11	26,89
567,583	26,38
568,056	26,64
568,529	26,31
569,002	25,97
569,475	25,97
569,947	25,94
570,42	25,72
570,892	25,67
571,365	25,34
571,837	25,16
572,309	25,05
572,781	24,54
573,253	24,62
573,725	24,02
574,197	24,09
574,668	24
575,14	23,95
575,611	23,43
576,082	23,62
576,554	23,28
577,025	23,32
577,496	22,98
577,967	22,8
578,437	22,99
578,908	22,57
579,379	22,31
579,849	22,18
580,319	21,87
580,79	21,83
581,26	22,03
581,73	21,8
582,2	21,75
582,669	21,64
583,139	21,58
583,609	21,09
584,078	21,25
584,548	20,84
585,017	20,86
585,486	20,63
585,955	20,77
586,424	20,58
586,893	20,57
587,362	20,66
587,83	20,4
588,299	20,5
588,767	20,41
589,236	19,78
589,704	20,04
590,172	20,07
590,64	19,69
591,108	19,86
591,576	19,78
592,043	19,59
592,511	19,77
592,978	19,52
593,446	19,49
593,913	19,43
594,38	19,33
594,847	19,27
595,314	19,2
595,781	19,15
596,248	19,11
596,715	19,35
597,181	19,1
597,647	19,02
598,114	18,94
598,58	18,91
599,046	18,94
599,512	19,02
599,978	18,83
600,444	19,03
600,91	18,96
601,375	18,99
601,841	18,82
602,306	18,82
602,771	18,57
603,236	18,46
603,702	18,44
604,167	18,34
604,631	18,43
605,096	18,27
605,561	18
606,025	18,02
606,49	17,99
606,954	18,13
607,418	17,96
607,882	17,91
608,347	17,67
608,81	17,68
609,274	17,49
609,738	17,56
610,202	17,47
610,665	17,4
611,128	17,19
611,592	17,23
612,055	17
612,518	17
612,981	16,82
613,444	16,62
613,907	16,7
614,369	16,32
614,832	16,38
615,294	16,43
615,757	16,11
616,219	16,29
616,681	15,95
617,143	16,01
617,605	15,81
618,067	15,85
618,529	15,68
618,99	15,58
619,452	15,48
619,913	15,49
620,375	15,37
620,836	15,37
621,297	15,2
621,758	15,31
622,219	15,21
622,68	15,09
623,14	15,1
623,601	15,05
624,061	14,84
624,522	14,9
624,982	14,96
625,442	14,82
625,902	14,91
626,362	14,95
626,822	14,85
627,282	14,7
627,742	14,74
628,201	14,86
628,661	14,67
629,12	14,75
629,579	14,69
630,038	14,75
630,497	14,74
630,956	14,37
631,415	14,65
631,874	14,67
632,332	14,53
632,791	14,48
633,249	14,43
633,708	14,4
634,166	14,39
634,624	14,08
635,082	14,14
635,54	14,1
635,998	14,1
636,455	14,03
636,913	13,96
637,37	13,8
637,828	13,53
638,285	13,65
638,742	13,45
639,199	13,53
639,656	13,27
640,113	13,28
640,57	13
641,027	12,92
641,483	12,73
641,94	12,54
642,396	12,55
642,852	12,49
643,309	12,41
643,765	12,14
644,221	12
644,676	11,75
645,132	11,83
645,588	11,63
646,043	11,69
646,499	11,46
646,954	11,43
647,409	11,12
647,864	11,06
648,319	11,04
648,774	10,81
649,229	10,79
649,684	10,77
650,139	10,64
650,593	10,5
651,047	10,56
651,502	10,31
651,956	10,41
652,41	10,2
652,864	10,11
653,318	10,26
653,772	10,07
654,225	10,19
654,679	10,11
655,133	10
655,586	9,94
656,039	9,91
656,492	9,92
656,946	9,84
657,399	9,86
657,851	9,58
658,304	9,57
658,757	9,5
659,209	9,4
659,662	9,23
660,114	9,15
660,567	9,16
661,019	9,06
661,471	8,81
661,923	8,9
662,375	8,81
662,826	8,7
663,278	8,46
663,73	8,62
664,181	8,41
664,632	8,44
665,084	8,33
665,535	8,27
665,986	8,23
666,437	8,15
666,888	8,14
667,338	8,13
667,789	8,11
668,24	8,27
668,69	8,03
669,14	8,11
669,591	8,02
670,041	8,13
670,491	8,18
670,941	8,12
671,391	8,07
671,84	8,18
672,29	8,19
672,74	8,32
673,189	8,14
673,638	8,22
674,088	8,33
674,537	8,38
674,986	8,45
675,435	8,41
675,883	8,54
676,332	8,59
676,781	8,67
677,229	8,89
677,678	8,75
678,126	9,01
678,574	8,98
679,022	9
679,47	9,14
679,918	9,2
680,366	9,34
680,814	9,43
681,261	9,7
681,709	9,77
682,156	9,78
682,604	9,97
683,051	9,89
683,498	9,98
683,945	10,21
684,392	10,42
684,839	10,63
685,286	10,7
685,732	10,8
686,179	11,01
686,625	11,14
687,071	11,27
687,518	11,66
687,964	11,76
688,41	12,15
688,856	12,44
689,301	12,57
689,747	12,97
690,193	13,34
690,638	13,74
691,084	14,15
691,529	14,47
691,974	14,99
692,419	15,45
692,864	15,85
693,309	16,57
693,754	17,19
694,199	17,59
694,643	18,04
695,088	18,74
695,532	19,21
695,977	19,94
696,421	20,44
696,865	21,02
697,309	21,74
697,753	22,2
698,197	22,83
698,64	23,43
699,084	24,2
699,527	24,8
699,971	25,29
700,414	26,02
700,857	26,55
701,3	27,14
701,743	27,47
702,186	28,13
702,629	29,07
703,072	29,38
703,515	29,91
703,957	30,43
704,399	30,95
704,842	31,56
705,284	31,94
705,726	32,65
706,168	32,87
706,61	33,43
707,052	34,19
707,494	34,33
707,935	34,81
708,377	35,35
708,818	35,81
709,26	36,35
709,701	36,43
710,142	36,92
710,583	37,44
711,024	37,56
711,465	38,05
711,905	38,82
712,346	38,57
712,787	39,21
713,227	39,84
713,667	40
714,108	40,45
714,548	40,89
714,988	41,19
715,428	41,58
715,868	41,69
716,307	42,02
716,747	42,42
717,186	42,89
717,626	43,2
718,065	43,4
718,504	43,59
718,944	43,97
719,383	44,11
719,822	44,69
720,261	44,95
720,699	45,21
721,138	45,6
721,576	45,93
722,015	46,02
722,453	45,91
722,892	46,79
723,33	46,54
723,768	47,08
724,206	47,19
724,644	47,2
725,081	47,63
725,519	47,84
725,957	47,71
726,394	48,14
726,832	48,32
727,269	48,42
727,706	48,95
728,143	48,85
728,58	49,09
729,017	49,08
729,454	49,14
729,89	49,23
730,327	49,22
730,764	49,53
731,2	49,71
731,636	49,7
732,072	49,74
732,509	50,16
732,945	50,24
733,38	50,29
733,816	50,58
734,252	50,39
734,688	50,48
735,123	50,39
735,559	50,68
735,994	50,86
736,429	50,6
736,864	50,9
737,299	50,66
737,734	51,14
738,169	51,01
738,604	51,14
739,038	51,24
739,473	51,55
739,907	51,11
740,342	51,32
740,776	51,22
741,21	51,17
741,644	51,29
742,078	51,22
742,512	51,36
742,946	51,05
743,379	51,54
743,813	51,32
744,246	51,5
744,68	51,32
745,113	51,27
745,546	51,35
745,979	51,33
746,412	51,26
746,845	51,43
747,278	51,25
747,711	51,6
748,143	51,1
748,576	51,45
749,008	51,38
749,441	51,37
749,873	51,03
750,305	51,33
750,737	51,05
751,169	50,91
751,601	51,36
752,032	50,92
752,464	51,29
752,896	50,91
753,327	51,17
753,758	51,06
754,19	51,23
754,621	51,04
755,052	50,86
755,483	50,71
755,914	50,97
756,344	50,51
756,775	50,94
757,206	50,93
757,636	50,89
758,066	50,99
758,497	50,76
758,927	50,74
759,357	50,65
759,787	50,71
760,217	50,3
760,647	50,66
761,076	50,46
761,506	50,51
761,935	50,54
762,365	50,88
762,794	50,48
763,223	50,15
763,653	50,71
764,082	50,49
764,51	50,45
764,939	50,18
765,368	50,32
765,797	50,22
766,225	50,13
766,654	50,33
767,082	50,56
767,51	50,04
767,938	50,46
768,367	49,84
768,795	49,8
769,222	50,18
769,65	50,01
770,078	50,05
770,505	49,92
770,933	50,02
771,36	49,9
771,788	50,08
772,215	49,68
772,642	50,13
773,069	49,94
773,496	49,91
773,923	49,84
774,349	49,91
774,776	49,69
775,203	49,45
775,629	49,74
776,055	49,71
776,482	49,94
776,908	49,77
777,334	49,85
777,76	49,53
778,186	49,5
778,611	49,78
779,037	49,67
779,463	49,85
779,888	49,56
780,314	49,55
780,739	49,42
781,164	49,54
781,589	49,77
782,014	49,94
782,439	49,54
782,864	49,8
783,289	49,48
783,713	49,55
784,138	49,5
784,562	49,67
784,987	49,28
785,411	49,22
785,835	49,2
786,259	49,21
786,683	49,48
787,107	49,62
787,531	49,35
787,954	49,27
788,378	49,38
788,802	49,09
789,225	49,36
789,648	49,47
790,071	49,49
790,495	49,55
790,918	49,09
791,34	49,5
791,763	49,42
792,186	49,29
792,609	49,38
793,031	49,32
793,454	49,35
793,876	49,26
794,298	49,05
794,721	49,45
795,143	49,19
795,565	49,19
795,986	49,28
796,408	49,29
796,83	49,38
797,252	49,1
797,673	49,54
798,094	49,53
798,516	49,39
798,937	48,96
799,358	49,19
799,779	49,28
800,2	49,1
800,621	49,19
801,042	49,2
801,462	49,43
801,883	49,35
802,303	49,02
802,724	49,11
803,144	49,34
803,564	49
803,984	49,1
804,404	48,66
804,824	49,11
805,244	49,15
805,664	49,42
806,084	49,14
806,503	49,05
806,923	49,2
807,342	49,25
807,761	48,84
808,18	49,25
808,599	49,05
809,018	49,32
809,437	48,81
809,856	49,18
810,275	49,3
810,693	49,22
811,112	48,74
811,53	49,05
811,949	49,08
812,367	48,91
812,785	49,01
813,203	49,07
813,621	49,12
814,039	49,14
814,457	49,38
814,874	48,77
815,292	49,2
815,709	49,04
816,127	48,6
816,544	49,15
816,961	49,05
817,378	48,85
817,795	48,84
818,212	49,01
818,629	48,89
819,046	49,08
819,462	48,97
819,879	48,97
820,295	48,89
820,712	49,08
821,128	49,12
821,544	48,88
821,96	49,17
822,376	49,13
822,792	49,21
823,208	48,56
823,624	48,88
824,039	49,03
824,455	49,27
824,87	49,01
825,286	49,21
825,701	48,8
826,116	49
826,531	48,86
826,946	48,85
827,361	48,63
827,776	49,16
828,19	48,81
828,605	48,66
829,02	48,96
829,434	48,83
829,848	48,72
830,263	48,97
830,677	49,05
831,091	48,99
831,505	48,62
831,919	49,03
832,332	48,68
832,746	48,85
833,16	48,45
833,573	48,66
833,987	48,59
834,4	48,5
834,813	48,96
835,226	48,79
835,639	48,67
836,052	48,79
836,465	48,74
836,878	48,83
837,29	48,76
837,703	48,63
838,116	48,88
838,528	48,62
838,94	48,84
839,352	48,88
839,765	48,73
840,177	48,79
840,589	48,57
841	48,69
841,412	48,51
841,824	48,73
842,235	48,68
842,647	48,64
843,058	48,45
843,47	48,61
843,881	48,51
844,292	48,63
844,703	48,78
845,114	48,69
845,525	48,75
845,935	48,61
846,346	48,34
846,757	48,61
847,167	48,59
847,577	48,57
847,988	48,69
848,398	48,75
848,808	48,73
849,218	48,88
849,628	48,7
850,038	48,91
850,448	48,67
850,857	48,18
851,267	48,56
851,676	48,71
852,086	48,81
852,495	48,5
852,904	48,27
853,313	48,67
853,722	48,56
854,131	48,59
854,54	48,6
854,949	48,62
855,357	48,69
855,766	48,48
856,174	48,25
856,583	48,18
856,991	48,74
857,399	48,49
857,807	48,44
858,215	48,79
858,623	48,33
859,031	48,59
859,439	48,13
859,846	48,39
860,254	48,52
860,661	48,57
861,069	48,62
861,476	48,3
861,883	48,7
862,29	48,33
862,697	48,78
863,104	48,72
863,511	48,47
863,918	48,4
864,325	48,35
864,731	48,53
865,138	48,43
865,544	48,75
865,95	48,71
866,357	48,63
866,763	48,75
867,169	48,3
867,575	48,36
867,98	48,69
868,386	48,83
868,792	48,96
869,197	48,76
869,603	48,39
870,008	48,52
870,414	48,24
870,819	48,6
871,224	48,55
871,629	48,51
872,034	48,38
872,439	48,3
872,844	48,47
873,248	48,24
873,653	48,35
874,057	48,53
874,462	48,4
874,866	48,48
875,27	48,61
875,674	48,79
876,078	48,39
876,482	48,7
876,886	48,56
877,29	48,68
877,694	48,53
878,097	48,52
878,501	48,72
878,904	48,76
879,308	48,52
879,711	48,08
880,114	48,47
880,517	48,38
880,92	48,39
881,323	48,47
881,726	48,81
882,128	48,19
882,531	48,72
882,934	48,48
883,336	48,34
883,738	48,16
884,141	48,81
884,543	48,38
884,945	48,69
885,347	48,28
885,749	48,43
886,151	48,67
886,552	48,79
886,954	48,06
887,355	48,64
887,757	48,68
888,158	47,94
888,56	48,5
888,961	48,43
889,362	48,38
889,763	48,25
890,164	48,61
890,565	48,35
890,965	48,35
891,366	48,25
891,767	48,24
892,167	48,76
892,567	48,58
892,968	48,38
893,368	48,14
893,768	48,22
894,168	48,31
894,568	48,77
894,968	48,28
895,368	48,34
895,767	48,44
896,167	48,35
896,566	48,34
896,966	48,17
897,365	48,45
897,764	48,49
898,164	48,72
898,563	48,55
898,962	48,34
899,361	48,39
899,759	48,5
900,158	48,42
900,557	48,6
900,955	48,76
901,354	48,68
901,752	48,26
902,15	48,69
902,548	48,72
902,947	48,37
903,345	48,63
903,742	48,57
904,14	48,58
904,538	48,61
904,936	48,48
905,333	48,45
905,731	48,5
906,128	48,47
906,525	48,64
906,923	49,07
907,32	48,43
907,717	48,09
908,114	48,29
908,511	48,63
908,907	48,44
909,304	48,38
909,701	48,28
910,097	48,81
910,494	48,48
910,89	48,67
911,286	48,43
911,682	48,48
912,078	48,45
912,474	48,4
912,87	48,34
913,266	48,71
913,662	48,18
914,058	48,48
914,453	48,2
914,849	48,16
915,244	48,45
915,639	48,68
916,034	48,34
916,43	48,41
916,825	48,29
917,22	48,35
917,614	48,71
918,009	48,68
918,404	48,4
918,798	48,54
919,193	48,63
919,587	48,4
919,982	48,16
920,376	48,81
920,77	48,14
921,164	48,49
921,558	48,47
921,952	48,46
922,346	48,39
922,74	48,86
923,133	48,67
923,527	48,14
923,92	48,21
924,314	48,28
924,707	48,39
925,1	48,18
925,493	48,44
925,886	48,22
926,279	48,47
926,672	48,43
927,065	48,38
927,457	48,14
927,85	48,68
928,243	48,26
928,635	48,72
929,027	48,36
929,42	48,37
929,812	48,26
930,204	48,43
930,596	48,01
930,988	48,53
931,379	48,09
931,771	48,22
932,163	48,22
932,554	47,89
932,946	48,43
933,337	48,01
933,729	48,53
934,12	48,14
934,511	48,27
934,902	48,14
935,293	47,87
935,684	48,16
936,075	47,97
936,465	47,46
936,856	47,98
937,246	47,84
937,637	47,84
938,027	47,8
938,417	47,92
938,808	48,36
939,198	47,96
939,588	47,8
939,978	47,94
940,368	47,92
940,757	48,09
941,147	47,79
941,537	47,86
941,926	47,99
942,315	48,18
942,705	47,17
943,094	47,89
943,483	47,69
943,872	47,91
944,261	47,7
944,65	47,61
945,039	47,68
945,428	47,86
945,816	47,47
946,205	48,08
946,593	47,68
946,982	47,89
947,37	47,69
947,758	48,3
948,146	47,78
948,534	47,97
948,922	47,64
949,31	48,46
949,698	47,79
950,086	47,59
950,473	47,49
950,861	47,49
951,248	47,62
951,636	47,31
952,023	47,23
952,41	47,11
952,797	47,6
953,184	48,2
953,571	46,92
953,958	47,56
954,345	46,85
954,731	46,92
955,118	46,93
955,505	46,67
955,891	46,83
956,277	47,49
956,664	47,33
957,05	46,46
957,436	47,26
957,822	46,94
958,208	46,85
958,594	46,55
958,979	46,93
959,365	46,78
959,751	46,71
960,136	47,23
960,522	46,69
960,907	46,92
961,292	46,66
961,677	46,48
962,062	46,76
962,447	46,57
962,832	46,78
963,217	47,02
963,602	47,29
963,986	46,81
964,371	46,87
964,756	46,23
965,14	46,25
965,524	46,61
965,908	46,84
966,293	46,99
966,677	47,04
967,061	46,57
967,445	46,78
967,828	46,52
968,212	47,13
968,596	46,28
968,979	46,65
969,363	46,99
969,746	47,25
970,129	46,52
970,513	47,11
970,896	47,15
971,279	46,93
971,662	46,37
972,045	46,91
972,428	46,6
972,81	46,72
973,193	46,78
973,575	46,8
973,958	47,03
974,34	47,13
974,723	46,96
975,105	46,49
975,487	47,07
975,869	46,51
976,251	46,89
976,633	46,83
977,015	46,77
977,396	46,98
977,778	46,93
978,16	47,17
978,541	46,61
978,922	47,18
979,304	47,05
979,685	47,12
980,066	46,61
980,447	47,26
980,828	46,85
981,209	46,46
981,59	47,11
981,97	46,75
982,351	46,35
982,732	46,94
983,112	47,01
983,493	46,4
983,873	46,64
984,253	46,77
984,633	46,9
985,013	47,03
985,393	46,93
985,773	46,79
986,153	47,22
986,533	47,22
986,912	46,66
987,292	46,85
987,671	48
988,051	47,08
988,43	46,67
988,809	47,02
989,188	47,17
989,567	47,35
989,946	46,8
990,325	46,72
990,704	46,96
991,083	46,93
991,461	47,01
991,84	47,21
992,218	47,82
992,597	46,64
992,975	47,95
993,353	47,35
993,732	47,32
994,11	47,53
994,488	46,95
994,866	47,6
995,243	46,71
995,621	47,23
995,999	46,85
996,376	46,98
996,754	47,58
997,131	47,47
997,509	47,38
997,886	46,88
998,263	47,2
998,64	46,82
999,017	46,93
999,394	47,49
999,771	46,59
1000,148	47,07
1000,524	47,33
1000,901	47,28
1001,277	47,62
1001,654	47,23
1002,03	47,27
1002,406	47,13
1002,783	47,16
1003,159	46,96
1003,535	46,9
1003,911	47,4
1004,286	47,29
1004,662	47,34
1005,038	47,18
1005,414	47,45
1005,789	47,35
1006,164	47,63
1006,54	47,49
1006,915	47,27
1007,29	48,04
1007,665	47,63
1008,04	46,6
1008,415	47,44
1008,79	47,57
1009,165	47,55
1009,54	46,78
1009,914	47,36
1010,289	47,82
1010,663	47,7
1011,038	47,34
1011,412	47,71
1011,786	47,23
1012,16	48,05
1012,535	47,12
1012,909	47,95
1013,282	47,92
1013,656	47,32
1014,03	47,36
1014,404	48,06
1014,777	48,01
1015,151	48,08
1015,524	47,91
1015,897	48,29
1016,271	48,05
1016,644	47,27
1017,017	47,85
1017,39	47,24
1017,763	47,64
1018,136	47,87
1018,508	48,09
1018,881	47,45
1019,254	47,92
1019,626	47,55
1019,999	47,58
1020,371	48,17
1020,743	47,66
1021,116	47,14
1021,488	47,83
1021,86	48,21
1022,232	47,97
1022,604	47,93
1022,975	48,18
1023,347	47,72
1023,719	47,97
1024,09	47,59
1024,462	47,85
1024,833	47,3
1025,204	48,28
1025,576	48,64
1025,947	48,05
1026,318	47,98
1026,689	47,89
1027,06	47,65
1027,431	48
1027,801	48,66
1028,172	47,83
1028,543	48,48
1028,913	47,86
1029,284	48,15
1029,654	47,47
1030,024	47,86
1030,394	48,38
1030,764	48,95
1031,135	47,74
1031,504	48,27
1031,874	48,29
1032,244	48,46
1032,614	47,83
1032,983	48,57
1033,353	48,1
1033,722	47,74
1034,092	48,44
1034,461	48,4
1034,83	47,95
1035,2	48,21
1035,569	48,36
1035,938	47,53
1036,307	48,4
1036,675	48,49
1037,044	48,07
1037,413	47,25
1037,781	47,91
1038,15	47,49
1038,518	48,38
1038,887	49,04
1039,255	47,88
1039,623	48,08
1039,991	48,62
1040,359	47,61
1040,727	48,74
1041,095	49,26
1041,463	48,36
1041,831	48,7
1042,198	48,07
1042,566	48,27
1042,933	47,83
1043,301	48,08
1043,668	47,61
1044,035	49,18
1044,402	48,38
1044,77	48,95
1045,137	49,12
1045,503	47,95
1045,87	49,25
1046,237	47,46
1046,604	47,97
1046,97	48,89
1047,337	48,91
1047,703	48,01
1048,07	48,79
1048,436	47,96
1048,802	48,11
1049,168	48,4
1049,534	48,27
1049,9	47,48
1050,266	49,04
1050,632	49,03
1050,998	49,31
1051,364	48,44
1051,729	48,92
1052,095	48,76
1052,46	48,84
1052,825	48,62
1053,191	48,68
1053,556	48,69
1053,921	47,87
1054,286	48,31
1054,651	48,86
1055,016	49,03
1055,381	48,85
1055,745	49,08
1056,11	49,09
1056,475	48,69
1056,839	49,37
1057,203	49,03
1057,568	48,64
1057,932	48,67
1058,296	47,43
1058,66	47,91
1059,024	48,92
1059,388	48,21
1059,752	48,12
1060,116	49,43
1060,48	49,96
1060,843	49,48
1061,207	49,54
1061,57	48,84
1061,934	49,69
1062,297	48,24
1062,66	49,26
1063,023	48,74
1063,386	46,58
1063,749	47,73
1064,112	47,9
1064,475	48
1064,838	48,89
1065,201	48,2
1065,563	48,65
1065,926	48,16
1066,288	49,52
1066,651	47,66
1067,013	48,51
1067,375	49,05
1067,737	48,84
1068,099	49,93
1068,461	47,89
1068,823	49,79
1069,185	48,76
1069,547	48,76
1069,909	49,54
1070,27	48,63
1070,632	46,77
1070,993	48,12
1071,355	48,5
1071,716	49,74
1072,077	49,3
1072,438	49,2
1072,799	48,61
1073,16	49,48
1073,521	49,07
1073,882	48,24
1074,243	48,05
1074,603	48,28
1074,964	48,01
1075,325	50,38
1075,685	50,5
1076,045	47,89
1076,406	48,61
1076,766	49,1
1077,126	49,91
1077,486	48,43
1077,846	48,21
1078,206	49,6
1078,566	51,14
1078,925	48,23
1079,285	48,83
1079,645	51,29
1080,004	48,81
1080,364	47,5
1080,723	48,23
1081,082	49,34
1081,442	48,8
1081,801	49,79
1082,16	49,84
1082,519	49,22
1082,878	48,81
1083,237	46,86
1083,595	50,18
1083,954	48,68
1084,313	48,76
1084,671	50,99
1085,03	48,49
1085,388	48,89
1085,746	49,29
1086,104	48,18
1086,463	48,15
1086,821	49,22
1087,179	50,06
1087,537	49,43
1087,894	48,47
1088,252	48,49
1088,61	48,64
1088,967	49,36
1089,325	50
1089,682	48,81
1090,04	47,79
1090,397	48,08
1090,754	49,87
1091,111	49,47
1091,469	47,82
1091,826	49,54
1092,182	48,73
1092,539	47,59
1092,896	49,95
1093,253	49,14
1093,609	49,43
1093,966	47,95
1094,322	49,17
1094,679	47,17
1095,035	48,62
1095,391	48,95
1095,748	48,92
1096,104	48,16
1096,46	48,95
1096,816	49,69
1097,171	49,76
1097,527	48,34
1097,883	49,5
1098,239	47,67
1098,594	49,51
1098,95	49,49
1099,305	48
1099,66	48,43
1100,016	49,72
1100,371	48,25
1100,726	49,65
1101,081	48,74
1101,436	48,81
1101,791	49,34
1102,146	48,35
1102,5	49,53
1102,855	49,86
1103,21	48
1103,564	51,34
1103,918	48,32
1104,273	49,85
1104,627	48,13
1104,981	50,25
1105,335	49,89
1105,69	49,08
1106,043	49,68
1106,397	50,32
1106,751	50,91
1107,105	50,53
1107,459	47,45
1107,812	49,02
1108,166	50,81
1108,519	49,94
1108,873	50,06
1109,226	48,74
1109,579	49,53
1109,932	47,78
1110,285	49,05
1110,638	50,52
1110,991	50,75
1111,344	49,73
1111,697	50,87
1112,05	51,91
1112,402	51,66
1112,755	51,57
1113,107	49,21
1113,46	47,7
1113,812	50
1114,164	50,05
1114,517	51,68
1114,869	56,41
1115,221	68,55
1115,573	50,94
1115,924	68,61
