Data from I_2__Relative__6__00182.txt Node

Date: Mon Jan 29 18:29:52 CET 2024
User: diatiterra
Spectrometer: HDX00911
Trigger mode: 0
Integration Time (sec): 6,000000E-3
Scans to average: 2
Nonlinearity correction enabled: false
Boxcar width: 0
Storing dark spectrum: false
XAxis mode: Wavelengths
Number of Pixels in Spectrum: 2068
>>>>>Begin Spectral Data<<<<<
194,468	66,67
195,025	32,74
195,581	65,96
196,138	45,38
196,694	35,63
197,251	48,89
197,807	38,8
198,363	39,27
198,919	44,13
199,474	35
200,03	36,4
200,586	34,01
201,141	34,83
201,696	39,79
202,251	43,91
202,806	33,46
203,361	42,11
203,916	40,41
204,471	38,73
205,025	36,07
205,58	33,33
206,134	31,85
206,688	35,14
207,242	36,39
207,796	36,61
208,35	31,41
208,904	29,15
209,457	43,32
210,011	38,46
210,564	34,03
211,117	30,63
211,67	31,69
212,223	34,93
212,776	33,71
213,329	33,68
213,881	32,86
214,434	37,59
214,986	33,67
215,538	34,43
216,09	33,11
216,642	37,41
217,194	35,43
217,746	35,35
218,297	41,28
218,849	40,5
219,4	45,8
219,951	44,73
220,502	37,28
221,053	42,01
221,604	40,94
222,155	38,27
222,705	37,46
223,256	47,12
223,806	35,71
224,356	46,01
224,906	37,41
225,456	40,69
226,006	40,27
226,556	44,53
227,106	47,2
227,655	37,98
228,204	37,5
228,754	35,86
229,303	36,95
229,852	37,25
230,401	36,2
230,949	50,58
231,498	49,25
232,047	35,69
232,595	40,07
233,143	46,59
233,691	42,4
234,239	34,7
234,787	38,11
235,335	34,69
235,883	44,44
236,43	37,41
236,978	36,36
237,525	41,79
238,072	31,73
238,619	38,01
239,166	42,09
239,713	42,75
240,26	38,95
240,806	33,33
241,353	45,58
241,899	33,98
242,445	50,35
242,991	43,21
243,537	45,54
244,083	38,55
244,629	37,5
245,174	45,15
245,72	40,8
246,265	37,1
246,81	38,32
247,355	36,03
247,9	39,79
248,445	43,79
248,99	37,37
249,534	39,87
250,079	43,66
250,623	42,03
251,168	38,59
251,712	43,97
252,256	41,2
252,8	39,93
253,343	42,36
253,887	39,8
254,43	48,7
254,974	32,17
255,517	35,23
256,06	36,99
256,603	40,75
257,146	40,07
257,689	42,09
258,232	45,98
258,774	37,64
259,317	43,59
259,859	35,42
260,401	45,08
260,943	44,03
261,485	52,13
262,027	43,79
262,569	41,73
263,11	43,68
263,652	33,82
264,193	40
264,734	44,05
265,275	40,56
265,816	40,65
266,357	36,69
266,898	41,3
267,438	33,33
267,979	41,45
268,519	37,91
269,059	40,07
269,6	39,65
270,14	44,88
270,68	34,1
271,219	43,86
271,759	34,7
272,298	36,36
272,838	39,53
273,377	35,93
273,916	35,74
274,455	32,18
274,994	38,49
275,533	39,93
276,072	47,37
276,61	38,57
277,149	30,07
277,687	41,64
278,225	39,73
278,763	38,04
279,301	36,23
279,839	34,42
280,377	41,24
280,914	41,39
281,452	46,75
281,989	39,25
282,526	37,99
283,064	41,32
283,601	39,39
284,137	42,34
284,674	39,25
285,211	36,33
285,747	36,27
286,284	37,19
286,82	39,72
287,356	32,65
287,892	44,56
288,428	38,98
288,964	42,96
289,5	39,8
290,035	42,81
290,571	39,18
291,106	33,82
291,641	35,25
292,176	41,35
292,711	41,72
293,246	42,6
293,781	37,55
294,315	38,97
294,85	45,99
295,384	42,59
295,918	40,07
296,453	36,04
296,987	42,41
297,52	36,3
298,054	37,87
298,588	32,68
299,121	41,03
299,655	38,25
300,188	38,4
300,721	36,9
301,254	38,08
301,787	36,99
302,32	33,33
302,853	37,28
303,385	41,03
303,918	35,44
304,45	40,54
304,982	36,25
305,514	35,06
306,046	37,89
306,578	35
307,11	41,26
307,641	34,18
308,173	35,69
308,704	40,61
309,236	31,46
309,767	34,58
310,298	29,27
310,829	43,73
311,359	45,55
311,89	38,79
312,421	32,97
312,951	36,36
313,481	42,97
314,012	35,16
314,542	40,07
315,072	37,82
315,601	39,86
316,131	33,94
316,661	35,42
317,19	31,32
317,72	42,49
318,249	36,49
318,778	38,4
319,307	32,43
319,836	40,94
320,365	39,41
320,893	32,62
321,422	30,97
321,95	34,81
322,479	44,29
323,007	34,06
323,535	38,87
324,063	46,27
324,591	33,67
325,118	32,52
325,646	41,15
326,173	38,93
326,701	32,73
327,228	36,1
327,755	34,41
328,282	37,74
328,809	34,07
329,336	33,56
329,862	38,46
330,389	37,2
330,915	31,91
331,441	34,58
331,968	33,33
332,494	31,77
333,02	34,67
333,545	28,16
334,071	32,33
334,597	33,11
335,122	29,43
335,648	39,56
336,173	41,25
336,698	31,51
337,223	37,88
337,748	23,16
338,272	33
338,797	37,86
339,322	32,89
339,846	35,94
340,37	31,14
340,894	34,93
341,419	29,87
341,942	36,91
342,466	33,45
342,99	34,15
343,514	27,92
344,037	34,75
344,56	30,41
345,084	28,39
345,607	33,13
346,13	30,46
346,653	27,99
347,175	29,68
347,698	22,32
348,221	25,58
348,743	29,74
349,265	27,38
349,787	26,86
350,309	31,13
350,831	33,13
351,353	26,98
351,875	28,65
352,397	26,17
352,918	32,77
353,439	34,15
353,961	24,51
354,482	28,65
355,003	30,03
355,524	30,1
356,044	29,82
356,565	29,18
357,086	23,16
357,606	24,82
358,126	24,09
358,646	20,65
359,167	25,8
359,687	28,07
360,206	23,13
360,726	23,22
361,246	29,64
361,765	24,56
362,285	25,59
362,804	22
363,323	16,51
363,842	26,9
364,361	21,43
364,88	26,58
365,398	24,28
365,917	26,08
366,435	21,89
366,954	23,05
367,472	27,29
367,99	24,02
368,508	27,93
369,026	20,16
369,544	20
370,061	21,09
370,579	23,83
371,096	22,81
371,613	26,61
372,131	21,83
372,648	22,74
373,165	26
373,681	19,96
374,198	20
374,715	21,88
375,231	19,87
375,747	22,31
376,264	22,84
376,78	21,05
377,296	21,52
377,812	19,29
378,327	18,81
378,843	20,68
379,359	20,14
379,874	19,54
380,389	22,42
380,905	20,03
381,42	18,93
381,935	19,73
382,449	19,82
382,964	22,53
383,479	17,37
383,993	18,15
384,508	18,85
385,022	17,97
385,536	17
386,05	17,77
386,564	18,68
387,078	17,7
387,592	17,08
388,105	16,42
388,619	17,8
389,132	17,11
389,645	17,04
390,158	16,8
390,671	16,95
391,184	15,02
391,697	13,82
392,21	14,78
392,722	15,5
393,235	13,42
393,747	14,97
394,259	15,06
394,771	13,61
395,283	13,93
395,795	13,82
396,307	13,09
396,818	12,33
397,33	12,44
397,841	13,2
398,353	12,19
398,864	12,75
399,375	11,62
399,886	13,16
400,397	12,41
400,907	12,1
401,418	10,66
401,928	10,63
402,439	11,74
402,949	10,19
403,459	10,84
403,969	10,7
404,479	10,08
404,989	8,87
405,498	8,26
406,008	8,26
406,517	8,41
407,027	8,58
407,536	7,8
408,045	7,52
408,554	7,75
409,063	7,2
409,572	6,65
410,08	7,84
410,589	6,41
411,097	7,06
411,606	6,08
412,114	6,59
412,622	5,62
413,13	6,24
413,638	5,2
414,145	5,09
414,653	5,27
415,16	5,59
415,668	5,03
416,175	4,73
416,682	4,72
417,189	4,56
417,696	4,17
418,203	5,06
418,71	4,25
419,216	4,5
419,723	4,3
420,229	4,14
420,735	4,1
421,242	4,46
421,748	4,29
422,254	3,87
422,759	4,08
423,265	3,75
423,771	4,06
424,276	4,07
424,781	4,13
425,287	3,76
425,792	3,86
426,297	4,26
426,802	3,69
427,306	3,75
427,811	3,46
428,316	3,54
428,82	3,76
429,324	3,36
429,829	4,08
430,333	3,41
430,837	3,75
431,34	3,24
431,844	3,4
432,348	2,92
432,851	3,44
433,355	3,37
433,858	3,13
434,361	3,47
434,864	3,17
435,367	3,33
435,87	3,51
436,373	3,39
436,876	3,01
437,378	3,16
437,88	3,23
438,383	3,28
438,885	3,2
439,387	3,16
439,889	3,2
440,391	3,37
440,892	3,12
441,394	3,17
441,896	3,28
442,397	3,01
442,898	2,95
443,399	3,33
443,9	3,24
444,401	3,17
444,902	3,18
445,403	3,29
445,903	3,12
446,404	3,15
446,904	3,22
447,405	3,12
447,905	3,23
448,405	3,41
448,905	3,2
449,404	3,08
449,904	3,26
450,404	2,93
450,903	3,38
451,403	3,33
451,902	3,53
452,401	3,58
452,9	3,3
453,399	3,59
453,898	3,36
454,396	3,1
454,895	3,66
455,393	3,27
455,892	3,36
456,39	3,66
456,888	3,52
457,386	3,46
457,884	3,58
458,382	3,41
458,879	3,55
459,377	3,3
459,874	3,42
460,372	3,43
460,869	3,46
461,366	3,53
461,863	3,65
462,36	3,57
462,857	3,69
463,353	3,49
463,85	3,49
464,346	3,57
464,843	3,48
465,339	3,45
465,835	3,5
466,331	3,44
466,827	3,42
467,323	3,34
467,818	3,53
468,314	3,59
468,809	3,29
469,305	3,39
469,8	3,47
470,295	3,36
470,79	3,72
471,285	3,41
471,78	3,26
472,274	3,47
472,769	3,49
473,263	3,29
473,758	3,59
474,252	3,56
474,746	3,51
475,24	3,67
475,734	3,35
476,228	3,33
476,721	3,45
477,215	3,48
477,708	3,54
478,202	3,68
478,695	3,49
479,188	3,42
479,681	3,58
480,174	3,4
480,667	3,44
481,159	3,62
481,652	3,74
482,144	3,46
482,637	3,62
483,129	3,61
483,621	3,62
484,113	3,97
484,605	3,52
485,097	3,61
485,588	3,59
486,08	3,61
486,571	3,74
487,063	3,74
487,554	3,81
488,045	3,77
488,536	3,84
489,027	3,9
489,518	3,93
490,008	3,75
490,499	3,83
490,989	3,87
491,48	4
491,97	4,03
492,46	3,91
492,95	4,05
493,44	3,91
493,93	4,26
494,419	4,28
494,909	4,14
495,398	4,26
495,888	4,39
496,377	4,52
496,866	4,61
497,355	4,58
497,844	4,7
498,333	4,85
498,821	5
499,31	5,06
499,798	5,19
500,287	5,03
500,775	5,2
501,263	5,35
501,751	5,36
502,239	5,61
502,727	5,66
503,215	5,81
503,702	5,91
504,19	6,01
504,677	6,11
505,164	6,29
505,651	6,37
506,139	6,83
506,625	6,79
507,112	6,9
507,599	6,99
508,086	7,22
508,572	7,31
509,058	7,64
509,545	7,79
510,031	7,97
510,517	8,29
511,003	8,32
511,489	8,71
511,974	9,01
512,46	8,96
512,946	9,57
513,431	9,2
513,916	9,59
514,401	9,69
514,887	10,38
515,371	10,45
515,856	10,6
516,341	10,84
516,826	11,32
517,31	11,56
517,795	11,69
518,279	11,89
518,763	12,4
519,247	12,45
519,731	12,57
520,215	13,21
520,699	13,49
521,182	13,32
521,666	13,96
522,149	13,88
522,633	14,46
523,116	14,52
523,599	15,04
524,082	14,94
524,565	15,17
525,048	15,49
525,53	15,57
526,013	16,12
526,495	16,45
526,978	16,23
527,46	16,71
527,942	16,65
528,424	17,07
528,906	17,14
529,388	17,33
529,87	17,13
530,351	17,58
530,833	17,78
531,314	18,17
531,795	17,96
532,277	17,89
532,758	18,18
533,238	18,38
533,719	18,46
534,2	18,75
534,681	18,79
535,161	18,68
535,642	18,71
536,122	18,61
536,602	19,06
537,082	19,19
537,562	19,26
538,042	19,18
538,522	19,42
539,001	19,12
539,481	19,4
539,96	19,46
540,44	18,94
540,919	19,29
541,398	19,33
541,877	19,43
542,356	19,45
542,835	19,58
543,313	19,44
543,792	19,67
544,27	19,54
544,749	19,78
545,227	19,9
545,705	19,83
546,183	19,72
546,661	20,02
547,139	19,8
547,616	19,95
548,094	20,22
548,571	20,03
549,049	19,86
549,526	20,05
550,003	19,97
550,48	20,25
550,957	20
551,434	20,17
551,911	20,08
552,387	20,18
552,864	20,12
553,34	20,04
553,817	20,24
554,293	20,29
554,769	20,06
555,245	20,18
555,721	20,1
556,197	19,91
556,672	20,15
557,148	19,72
557,623	19,96
558,099	19,88
558,574	19,94
559,049	19,96
559,524	20,03
559,999	19,83
560,474	19,61
560,948	19,86
561,423	19,7
561,897	19,74
562,372	19,92
562,846	19,48
563,32	19,34
563,794	19,32
564,268	18,85
564,742	19,06
565,216	19,01
565,69	18,59
566,163	18,83
566,636	18,63
567,11	18,51
567,583	18,29
568,056	18,26
568,529	18,06
569,002	18,17
569,475	17,94
569,947	18
570,42	17,57
570,892	17,58
571,365	17,6
571,837	17,37
572,309	17,14
572,781	16,99
573,253	16,81
573,725	16,76
574,197	16,79
574,668	16,53
575,14	16,36
575,611	16,11
576,082	15,93
576,554	15,87
577,025	16,06
577,496	15,79
577,967	15,58
578,437	15,52
578,908	15,47
579,379	15,44
579,849	15,47
580,319	15,16
580,79	14,8
581,26	14,97
581,73	14,71
582,2	14,62
582,669	14,55
583,139	14,69
583,609	14,47
584,078	14,27
584,548	14,18
585,017	14,26
585,486	14,09
585,955	14
586,424	14,01
586,893	14,11
587,362	13,9
587,83	13,6
588,299	13,74
588,767	13,71
589,236	13,53
589,704	13,64
590,172	13,47
590,64	13,47
591,108	13,25
591,576	13,49
592,043	13,21
592,511	13,22
592,978	13,26
593,446	13,24
593,913	13,06
594,38	12,98
594,847	13,04
595,314	12,89
595,781	13,06
596,248	12,83
596,715	12,75
597,181	12,83
597,647	13
598,114	12,82
598,58	12,69
599,046	12,74
599,512	12,78
599,978	12,63
600,444	12,72
600,91	12,57
601,375	12,7
601,841	12,76
602,306	12,54
602,771	12,68
603,236	12,4
603,702	12,31
604,167	12,37
604,631	12,46
605,096	12,42
605,561	12,28
606,025	12,16
606,49	11,98
606,954	12,1
607,418	11,96
607,882	11,95
608,347	11,81
608,81	11,76
609,274	11,68
609,738	11,61
610,202	11,51
610,665	11,5
611,128	11,5
611,592	11,31
612,055	11,34
612,518	11,23
612,981	11,07
613,444	10,94
613,907	10,95
614,369	10,93
614,832	10,73
615,294	10,71
615,757	10,51
616,219	10,56
616,681	10,5
617,143	10,31
617,605	10,33
618,067	10,14
618,529	10,15
618,99	10,12
619,452	10,05
619,913	10,12
620,375	10,14
620,836	9,91
621,297	9,96
621,758	9,9
622,219	9,86
622,68	9,74
623,14	9,7
623,601	9,64
624,061	9,64
624,522	9,57
624,982	9,72
625,442	9,65
625,902	9,58
626,362	9,59
626,822	9,5
627,282	9,46
627,742	9,52
628,201	9,43
628,661	9,44
629,12	9,34
629,579	9,49
630,038	9,36
630,497	9,46
630,956	9,36
631,415	9,37
631,874	9,4
632,332	9,32
632,791	9,24
633,249	9,22
633,708	9,26
634,166	9,08
634,624	9,14
635,082	9,08
635,54	9
635,998	9
636,455	8,94
636,913	8,8
637,37	8,65
637,828	8,58
638,285	8,6
638,742	8,44
639,199	8,4
639,656	8,3
640,113	8,24
640,57	8,05
641,027	7,96
641,483	7,96
641,94	7,67
642,396	7,61
642,852	7,57
643,309	7,55
643,765	7,31
644,221	7,24
644,676	7,15
645,132	7
645,588	6,87
646,043	6,96
646,499	6,72
646,954	6,64
647,409	6,55
647,864	6,52
648,319	6,44
648,774	6,27
649,229	6,17
649,684	6,24
650,139	6,1
650,593	5,97
651,047	6
651,502	6,01
651,956	5,97
652,41	5,83
652,864	5,81
653,318	5,81
653,772	5,74
654,225	5,74
654,679	5,75
655,133	5,8
655,586	5,67
656,039	5,52
656,492	5,49
656,946	5,44
657,399	5,34
657,851	5,33
658,304	5,22
658,757	5,2
659,209	5,21
659,662	5,06
660,114	4,99
660,567	4,93
661,019	4,81
661,471	4,69
661,923	4,66
662,375	4,65
662,826	4,63
663,278	4,37
663,73	4,36
664,181	4,29
664,632	4,25
665,084	4,22
665,535	4,08
665,986	4,02
666,437	4,11
666,888	4,06
667,338	3,99
667,789	4,1
668,24	4
668,69	4,01
669,14	3,99
669,591	3,92
670,041	3,89
670,491	3,94
670,941	3,94
671,391	4,02
671,84	3,94
672,29	4,05
672,74	4,1
673,189	4,05
673,638	4,15
674,088	4,15
674,537	4,17
674,986	4,19
675,435	4,32
675,883	4,42
676,332	4,37
676,781	4,5
677,229	4,49
677,678	4,62
678,126	4,78
678,574	4,79
679,022	4,82
679,47	4,84
679,918	4,96
680,366	5,1
680,814	5,24
681,261	5,16
681,709	5,34
682,156	5,45
682,604	5,66
683,051	5,65
683,498	5,76
683,945	5,79
684,392	5,94
684,839	6,12
685,286	6,19
685,732	6,4
686,179	6,56
686,625	6,67
687,071	6,85
687,518	7,09
687,964	7,32
688,41	7,38
688,856	7,73
689,301	7,96
689,747	8,21
690,193	8,48
690,638	8,73
691,084	9,23
691,529	9,4
691,974	9,93
692,419	10,17
692,864	10,75
693,309	11,18
693,754	11,41
694,199	12
694,643	12,46
695,088	12,83
695,532	13,32
695,977	13,72
696,421	14,27
696,865	14,7
697,309	15,15
697,753	15,66
698,197	16,2
698,64	16,67
699,084	16,88
699,527	17,26
699,971	17,7
700,414	18,47
700,857	18,8
701,3	19,2
701,743	19,7
702,186	19,92
702,629	20,51
703,072	20,84
703,515	21,34
703,957	21,67
704,399	21,85
704,842	22,11
705,284	22,66
705,726	22,91
706,168	23,32
706,61	23,7
707,052	24,01
707,494	24,31
707,935	24,56
708,377	25,12
708,818	25,24
709,26	25,51
709,701	25,79
710,142	26,01
710,583	26,38
711,024	26,87
711,465	26,92
711,905	27,32
712,346	27,36
712,787	27,61
713,227	28,01
713,667	28,35
714,108	28,52
714,548	28,64
714,988	28,98
715,428	29,18
715,868	29,5
716,307	29,72
716,747	30,09
717,186	30,27
717,626	30,34
718,065	30,33
718,504	30,5
718,944	30,95
719,383	31,11
719,822	31,28
720,261	31,44
720,699	31,56
721,138	31,65
721,576	32,04
722,015	32,07
722,453	32,09
722,892	32,63
723,33	32,46
723,768	32,69
724,206	33,02
724,644	32,91
725,081	33,14
725,519	33,09
725,957	33,15
726,394	33,42
726,832	33,57
727,269	33,53
727,706	33,78
728,143	33,88
728,58	33,93
729,017	34
729,454	34,12
729,89	34,06
730,327	34,3
730,764	34,34
731,2	34,64
731,636	34,55
732,072	34,49
732,509	34,45
732,945	34,75
733,38	35,11
733,816	34,58
734,252	34,88
734,688	34,91
735,123	34,89
735,559	35,01
735,994	35,03
736,429	35,22
736,864	35,26
737,299	35,09
737,734	35,33
738,169	35,12
738,604	35,37
739,038	35,26
739,473	35,49
739,907	35,22
740,342	35,45
740,776	35,32
741,21	35,44
741,644	35,32
742,078	35,37
742,512	35,85
742,946	35,23
743,379	35,49
743,813	35,45
744,246	35,51
744,68	35,39
745,113	35,55
745,546	35,45
745,979	35,55
746,412	35,7
746,845	35,43
747,278	35,3
747,711	35,4
748,143	35,47
748,576	35,59
749,008	35,47
749,441	35,68
749,873	35,15
750,305	35,38
750,737	35,29
751,169	35,12
751,601	35,38
752,032	35,28
752,464	35,21
752,896	35,3
753,327	35,19
753,758	35,3
754,19	35,11
754,621	35,06
755,052	35,19
755,483	35,2
755,914	35,28
756,344	35,02
756,775	35,16
757,206	35,13
757,636	34,92
758,066	35,13
758,497	35,12
758,927	34,9
759,357	35,15
759,787	35,05
760,217	34,89
760,647	34,92
761,076	35,02
761,506	34,78
761,935	34,78
762,365	34,82
762,794	34,85
763,223	34,8
763,653	34,85
764,082	34,82
764,51	34,67
764,939	34,86
765,368	35,01
765,797	34,33
766,225	34,68
766,654	34,59
767,082	34,71
767,51	34,48
767,938	34,57
768,367	34,44
768,795	34,45
769,222	34,59
769,65	34,31
770,078	34,56
770,505	34,39
770,933	34,63
771,36	34,41
771,788	34,66
772,215	34,22
772,642	34,7
773,069	34,57
773,496	34,42
773,923	34,42
774,349	34,4
774,776	34,12
775,203	34,02
775,629	34,36
776,055	34,11
776,482	34,32
776,908	34,34
777,334	34,27
777,76	34,1
778,186	34,15
778,611	34,13
779,037	34,33
779,463	34,05
779,888	34,32
780,314	34,21
780,739	34,15
781,164	34,04
781,589	34,3
782,014	34,2
782,439	34,13
782,864	34
783,289	34
783,713	34,08
784,138	34,05
784,562	34,12
784,987	33,9
785,411	33,79
785,835	34,08
786,259	34,14
786,683	33,96
787,107	34,22
787,531	34,14
787,954	34,12
788,378	33,87
788,802	33,97
789,225	33,8
789,648	34,05
790,071	34,02
790,495	34,06
790,918	33,81
791,34	33,87
791,763	34,23
792,186	34,1
792,609	34
793,031	33,96
793,454	33,82
793,876	34,17
794,298	33,97
794,721	33,85
795,143	34
795,565	33,83
795,986	34,02
796,408	34,16
796,83	33,94
797,252	33,84
797,673	33,92
798,094	33,97
798,516	33,88
798,937	33,75
799,358	33,62
799,779	33,69
800,2	33,69
800,621	33,81
801,042	34,12
801,462	34,03
801,883	33,91
802,303	33,78
802,724	33,77
803,144	33,85
803,564	33,82
803,984	33,94
804,404	33,68
804,824	34,03
805,244	33,77
805,664	33,77
806,084	33,79
806,503	33,83
806,923	33,94
807,342	33,73
807,761	33,73
808,18	33,91
808,599	33,79
809,018	33,96
809,437	33,66
809,856	33,71
810,275	33,9
810,693	33,86
811,112	33,77
811,53	33,83
811,949	33,96
812,367	33,75
812,785	33,83
813,203	33,75
813,621	34,03
814,039	33,86
814,457	33,78
814,874	33,73
815,292	34,07
815,709	33,9
816,127	33,48
816,544	33,9
816,961	33,72
817,378	34,11
817,795	33,57
818,212	33,87
818,629	33,97
819,046	34,14
819,462	33,96
819,879	33,69
820,295	33,85
820,712	33,72
821,128	33,94
821,544	33,87
821,96	33,84
822,376	33,59
822,792	33,72
823,208	33,75
823,624	33,56
824,039	33,86
824,455	33,96
824,87	33,73
825,286	33,75
825,701	33,6
826,116	33,85
826,531	33,58
826,946	33,8
827,361	33,74
827,776	33,73
828,19	33,46
828,605	33,82
829,02	33,68
829,434	33,84
829,848	33,73
830,263	33,83
830,677	33,53
831,091	33,72
831,505	33,65
831,919	33,82
832,332	33,37
832,746	33,72
833,16	33,71
833,573	33,71
833,987	33,55
834,4	33,71
834,813	33,56
835,226	33,77
835,639	33,62
836,052	33,76
836,465	33,78
836,878	33,51
837,29	33,98
837,703	33,45
838,116	33,64
838,528	33,52
838,94	33,41
839,352	33,6
839,765	33,67
840,177	33,51
840,589	33,57
841	33,66
841,412	33,66
841,824	33,43
842,235	33,6
842,647	33,64
843,058	33,52
843,47	33,65
843,881	33,33
844,292	33,35
844,703	33,62
845,114	33,35
845,525	33,61
845,935	33,51
846,346	33,45
846,757	33,66
847,167	33,67
847,577	33,6
847,988	33,63
848,398	33,95
848,808	33,73
849,218	33,59
849,628	33,63
850,038	33,66
850,448	33,59
850,857	33,66
851,267	33,5
851,676	33,63
852,086	33,88
852,495	33,54
852,904	33,65
853,313	33,67
853,722	33,47
854,131	33,37
854,54	33,62
854,949	33,55
855,357	33,53
855,766	33,51
856,174	33,47
856,583	33,62
856,991	33,47
857,399	33,44
857,807	33,42
858,215	33,58
858,623	33,59
859,031	33,53
859,439	33,4
859,846	33,39
860,254	33,39
860,661	33,71
861,069	33,61
861,476	33,29
861,883	33,56
862,29	33,83
862,697	33,51
863,104	33,39
863,511	33,61
863,918	33,41
864,325	33,32
864,731	33,33
865,138	33,49
865,544	33,7
865,95	33,47
866,357	33,47
866,763	33,85
867,169	33,31
867,575	33,63
867,98	33,29
868,386	33,64
868,792	33,57
869,197	33,31
869,603	33,18
870,008	33,65
870,414	33,33
870,819	33,8
871,224	33,36
871,629	33,6
872,034	33,5
872,439	33,33
872,844	33,32
873,248	33,46
873,653	33,35
874,057	33,53
874,462	33,65
874,866	33,25
875,27	33,42
875,674	33,4
876,078	33,33
876,482	33,59
876,886	33,52
877,29	33,45
877,694	33,78
878,097	33,61
878,501	33,91
878,904	33,63
879,308	33,51
879,711	33,72
880,114	33,49
880,517	33,48
880,92	33,49
881,323	33,73
881,726	33,83
882,128	33,73
882,531	33,8
882,934	33,67
883,336	33,51
883,738	33,43
884,141	33,86
884,543	33,48
884,945	33,4
885,347	33,43
885,749	33,58
886,151	33,8
886,552	33,73
886,954	33,29
887,355	33,69
887,757	33,69
888,158	33,54
888,56	33,61
888,961	33,55
889,362	33,7
889,763	33,38
890,164	33,62
890,565	33,6
890,965	33,56
891,366	33,42
891,767	33,57
892,167	33,63
892,567	33,49
892,968	33,46
893,368	33,46
893,768	33,71
894,168	33,46
894,568	33,87
894,968	33,23
895,368	33,7
895,767	33,58
896,167	33,56
896,566	33,5
896,966	33,36
897,365	33,34
897,764	33,5
898,164	33,76
898,563	33,37
898,962	33,54
899,361	33,72
899,759	33,24
900,158	33,59
900,557	33,75
900,955	33,64
901,354	33,7
901,752	33,39
902,15	33,83
902,548	33,38
902,947	33,5
903,345	33,62
903,742	33,7
904,14	33,6
904,538	33,87
904,936	33,7
905,333	33,65
905,731	33,69
906,128	33,45
906,525	33,33
906,923	33,75
907,32	33,61
907,717	33,55
908,114	33,54
908,511	33,72
908,907	33,52
909,304	33,56
909,701	33,46
910,097	33,71
910,494	33,16
910,89	33,54
911,286	33,49
911,682	33,41
912,078	33,73
912,474	33,64
912,87	33,52
913,266	33,68
913,662	33,6
914,058	33,58
914,453	33,73
914,849	33,68
915,244	33,45
915,639	33,79
916,034	33,23
916,43	33,66
916,825	33,37
917,22	33,42
917,614	33,57
918,009	33,55
918,404	33,37
918,798	33,4
919,193	33,5
919,587	33,95
919,982	33,56
920,376	33,4
920,77	33,62
921,164	33,98
921,558	33,71
921,952	33,57
922,346	33,41
922,74	33,78
923,133	33,91
923,527	33,48
923,92	33,5
924,314	33,77
924,707	33,41
925,1	33,29
925,493	33,84
925,886	33,62
926,279	33,5
926,672	33,29
927,065	33,26
927,457	33,45
927,85	33,28
928,243	33,38
928,635	33,66
929,027	33,21
929,42	33,95
929,812	33,7
930,204	33,61
930,596	33,59
930,988	33,23
931,379	33,18
931,771	33,41
932,163	33,53
932,554	33,27
932,946	33,76
933,337	33,25
933,729	33,65
934,12	33,45
934,511	33,3
934,902	33,38
935,293	33,71
935,684	33,58
936,075	33,12
936,465	33,06
936,856	33,58
937,246	33,42
937,637	33,02
938,027	33,51
938,417	33,42
938,808	33,63
939,198	33,3
939,588	33,14
939,978	33,64
940,368	33,06
940,757	32,84
941,147	33,1
941,537	33,38
941,926	33,53
942,315	33,12
942,705	33,17
943,094	32,95
943,483	33,74
943,872	33,01
944,261	33,53
944,65	33,12
945,039	33,37
945,428	33,38
945,816	32,79
946,205	33,37
946,593	32,78
946,982	33,02
947,37	32,87
947,758	33,58
948,146	33,01
948,534	33,39
948,922	33,59
949,31	32,97
949,698	33,25
950,086	33,07
950,473	32,77
950,861	32,83
951,248	33,29
951,636	33,15
952,023	32,95
952,41	32,6
952,797	33,15
953,184	32,56
953,571	32,89
953,958	32,88
954,345	32,52
954,731	32,69
955,118	32,39
955,505	32,71
955,891	33,14
956,277	32,93
956,664	32,7
957,05	33,12
957,436	32,69
957,822	32,43
958,208	32,81
958,594	32,34
958,979	33,07
959,365	32,46
959,751	32,75
960,136	32,57
960,522	32,73
960,907	32,89
961,292	32,91
961,677	32,46
962,062	32,93
962,447	32,81
962,832	32,96
963,217	33,08
963,602	32,62
963,986	33,46
964,371	32,45
964,756	32,39
965,14	32,82
965,524	32,77
965,908	32,28
966,293	32,45
966,677	32,57
967,061	32,31
967,445	32,57
967,828	32,52
968,212	32,61
968,596	32,87
968,979	32,55
969,363	32,87
969,746	32,7
970,129	32,5
970,513	32,72
970,896	33,04
971,279	32,77
971,662	32,5
972,045	32,73
972,428	32,34
972,81	33,13
973,193	32,74
973,575	32,69
973,958	32,64
974,34	32,54
974,723	32,69
975,105	32,78
975,487	32,74
975,869	32,61
976,251	32,67
976,633	33,32
977,015	32,52
977,396	32,58
977,778	32,88
978,16	32,74
978,541	32,66
978,922	33,11
979,304	32,54
979,685	32,96
980,066	32,83
980,447	33,01
980,828	32,48
981,209	33,11
981,59	32,65
981,97	33,04
982,351	32,65
982,732	32,84
983,112	32,86
983,493	32,69
983,873	32,84
984,253	33,02
984,633	32,79
985,013	33,08
985,393	33,11
985,773	32,48
986,153	33,08
986,533	33,07
986,912	32,86
987,292	32,79
987,671	32,96
988,051	32,67
988,43	32,54
988,809	33,01
989,188	32,72
989,567	33,18
989,946	33,28
990,325	32,51
990,704	32,91
991,083	32,87
991,461	33,24
991,84	32,89
992,218	32,86
992,597	32,46
992,975	32,97
993,353	33,11
993,732	33
994,11	33,46
994,488	32,68
994,866	33,5
995,243	33
995,621	32,93
995,999	32,95
996,376	33,18
996,754	32,96
997,131	33,24
997,509	32,97
997,886	32,91
998,263	32,78
998,64	32,76
999,017	33,25
999,394	32,58
999,771	32,83
1000,148	32,65
1000,524	33,48
1000,901	33,07
1001,277	32,92
1001,654	33,09
1002,03	32,81
1002,406	33,37
1002,783	32,63
1003,159	33,21
1003,535	33,15
1003,911	33,23
1004,286	32,96
1004,662	32,73
1005,038	33,03
1005,414	33,16
1005,789	32,77
1006,164	32,65
1006,54	33,22
1006,915	32,93
1007,29	33,35
1007,665	33,55
1008,04	33,15
1008,415	33,52
1008,79	33,54
1009,165	33,6
1009,54	33,45
1009,914	33,03
1010,289	33,1
1010,663	32,99
1011,038	33,15
1011,412	33,38
1011,786	32,73
1012,16	33,37
1012,535	32,98
1012,909	33,91
1013,282	33,57
1013,656	33,36
1014,03	33,24
1014,404	33,44
1014,777	33,86
1015,151	33,37
1015,524	33,61
1015,897	33,85
1016,271	33,72
1016,644	32,81
1017,017	33,35
1017,39	32,92
1017,763	32,35
1018,136	33,14
1018,508	33,72
1018,881	32,97
1019,254	33,71
1019,626	33,59
1019,999	33,08
1020,371	32,99
1020,743	33,28
1021,116	33,35
1021,488	33,51
1021,86	33,45
1022,232	34,05
1022,604	33,22
1022,975	33,41
1023,347	33,42
1023,719	33,15
1024,09	33,47
1024,462	33,26
1024,833	33,22
1025,204	32,99
1025,576	34,22
1025,947	33,71
1026,318	33,88
1026,689	33,49
1027,06	33,36
1027,431	33,21
1027,801	33,12
1028,172	33,49
1028,543	33,45
1028,913	33,63
1029,284	33,79
1029,654	33,06
1030,024	33,34
1030,394	33,97
1030,764	33,36
1031,135	33,62
1031,504	33,33
1031,874	32,98
1032,244	33,96
1032,614	33,25
1032,983	33,15
1033,353	33,55
1033,722	33,5
1034,092	33,57
1034,461	33,59
1034,83	33,35
1035,2	34,08
1035,569	33,15
1035,938	33,38
1036,307	33,84
1036,675	33,78
1037,044	34,08
1037,413	33,52
1037,781	33,19
1038,15	33,75
1038,518	33,1
1038,887	34,33
1039,255	33,14
1039,623	33,04
1039,991	33,5
1040,359	33,58
1040,727	33,85
1041,095	33,9
1041,463	34,65
1041,831	33,8
1042,198	32,77
1042,566	33,46
1042,933	34,16
1043,301	33,6
1043,668	33,1
1044,035	33,04
1044,402	33,62
1044,77	34,08
1045,137	34,1
1045,503	33,69
1045,87	33,93
1046,237	33,62
1046,604	33,32
1046,97	33,66
1047,337	33,26
1047,703	33,4
1048,07	34,21
1048,436	33,32
1048,802	34
1049,168	33,88
1049,534	33,69
1049,9	33,66
1050,266	33,97
1050,632	34,22
1050,998	33,87
1051,364	33,15
1051,729	33,76
1052,095	34,27
1052,46	33,79
1052,825	33,14
1053,191	34,16
1053,556	33,65
1053,921	33,85
1054,286	34,2
1054,651	33,77
1055,016	33,76
1055,381	33,26
1055,745	34,22
1056,11	34,4
1056,475	34,02
1056,839	34,21
1057,203	33,81
1057,568	33,99
1057,932	33,39
1058,296	32,65
1058,66	33,46
1059,024	33,47
1059,388	33,7
1059,752	35,13
1060,116	34,54
1060,48	33,89
1060,843	34,75
1061,207	33,52
1061,57	34,37
1061,934	34,28
1062,297	34,53
1062,66	34,77
1063,023	34,31
1063,386	32,91
1063,749	33,56
1064,112	33,27
1064,475	33,75
1064,838	34,51
1065,201	34,09
1065,563	33,64
1065,926	33,47
1066,288	34,92
1066,651	33,15
1067,013	32,58
1067,375	33,34
1067,737	33,81
1068,099	34,25
1068,461	34
1068,823	33,97
1069,185	34,77
1069,547	33,62
1069,909	34,24
1070,27	33,67
1070,632	33,97
1070,993	32,46
1071,355	33,7
1071,716	34,11
1072,077	34,03
1072,438	34,21
1072,799	33,52
1073,16	34,76
1073,521	34,27
1073,882	34,44
1074,243	33,64
1074,603	33,78
1074,964	34,43
1075,325	34,89
1075,685	34,06
1076,045	34
1076,406	33,66
1076,766	34,9
1077,126	34,06
1077,486	33,64
1077,846	33,07
1078,206	33,47
1078,566	34,17
1078,925	34,39
1079,285	34,09
1079,645	33,95
1080,004	33,61
1080,364	34,62
1080,723	34,64
1081,082	35,78
1081,442	33,56
1081,801	34,46
1082,16	34,93
1082,519	35,75
1082,878	33,7
1083,237	33,99
1083,595	34,28
1083,954	33,57
1084,313	34,14
1084,671	34,82
1085,03	34,5
1085,388	34,42
1085,746	34,84
1086,104	34,6
1086,463	35,62
1086,821	33,16
1087,179	35,57
1087,537	34,96
1087,894	33,14
1088,252	34,31
1088,61	35,43
1088,967	34,46
1089,325	34,89
1089,682	34,73
1090,04	32,75
1090,397	34,18
1090,754	34,03
1091,111	34,82
1091,469	34,2
1091,826	35,22
1092,182	33,69
1092,539	34,31
1092,896	33,69
1093,253	33,29
1093,609	34,66
1093,966	32,9
1094,322	34,73
1094,679	34,21
1095,035	33,64
1095,391	33,76
1095,748	35,75
1096,104	34,78
1096,46	34,31
1096,816	34,78
1097,171	34,21
1097,527	34,19
1097,883	35,38
1098,239	35,65
1098,594	34,6
1098,95	34,34
1099,305	34,34
1099,66	33,83
1100,016	34,62
1100,371	35,21
1100,726	33,55
1101,081	33,41
1101,436	34,08
1101,791	35,08
1102,146	33,87
1102,5	35,18
1102,855	33,48
1103,21	33,9
1103,564	36,15
1103,918	34,7
1104,273	35,29
1104,627	34,68
1104,981	34,34
1105,335	34,56
1105,69	34,26
1106,043	35,17
1106,397	33,44
1106,751	36,09
1107,105	35,84
1107,459	35,11
1107,812	35,14
1108,166	34,91
1108,519	35,37
1108,873	36,44
1109,226	34,33
1109,579	33,02
1109,932	34,54
1110,285	33,97
1110,638	34,27
1110,991	37,14
1111,344	34,74
1111,697	36,09
1112,05	37,13
1112,402	35,25
1112,755	35,13
1113,107	36,19
1113,46	33,98
1113,812	34,51
1114,164	33,99
1114,517	37,36
1114,869	50,43
1115,221	45,16
1115,573	54,72
1115,924	45,26
