Data from I_4__Relative__2__00189.txt Node

Date: Mon Jan 29 18:31:02 CET 2024
User: diatiterra
Spectrometer: HDX00911
Trigger mode: 0
Integration Time (sec): 6,000000E-3
Scans to average: 2
Nonlinearity correction enabled: false
Boxcar width: 0
Storing dark spectrum: false
XAxis mode: Wavelengths
Number of Pixels in Spectrum: 2068
>>>>>Begin Spectral Data<<<<<
194,468	62,75
195,025	43,36
195,581	69,15
196,138	48,46
196,694	44,25
197,251	46,67
197,807	46
198,363	42,55
198,919	51,96
199,474	45,36
200,03	33,46
200,586	37,07
201,141	49,81
201,696	35,99
202,251	45,39
202,806	46,62
203,361	40,7
203,916	44,18
204,471	42,96
205,025	41,79
205,58	45,88
206,134	45,19
206,688	43,84
207,242	43,2
207,796	45,08
208,35	41,52
208,904	35,59
209,457	49,46
210,011	47,9
210,564	41,67
211,117	44,72
211,67	43,66
212,223	37,33
212,776	55,06
213,329	36,08
213,881	42,5
214,434	51,38
214,986	40,4
215,538	37,36
216,09	37,38
216,642	45,19
217,194	42,72
217,746	41,41
218,297	42,62
218,849	42,68
219,4	53,15
219,951	50,55
220,502	41,11
221,053	44,51
221,604	47,65
222,155	49,79
222,705	45,82
223,256	44,6
223,806	39,46
224,356	44,2
224,906	38,89
225,456	47,24
226,006	36,58
226,556	46,35
227,106	42,66
227,655	45,3
228,204	45,39
228,754	45,17
229,303	43,39
229,852	43,79
230,401	49,1
230,949	52,92
231,498	54,1
232,047	50,51
232,595	52,13
233,143	55,3
233,691	54
234,239	47,39
234,787	45,8
235,335	47,62
235,883	41,58
236,43	43,7
236,978	42,91
237,525	50,37
238,072	47,23
238,619	42,47
239,166	45,45
239,713	51,67
240,26	41,2
240,806	49,29
241,353	45,23
241,899	40,45
242,445	46,15
242,991	55,4
243,537	50,17
244,083	50,91
244,629	46,62
245,174	55,22
245,72	43,81
246,265	47,35
246,81	51,46
247,355	46,69
247,9	42,21
248,445	51,38
248,99	43,94
249,534	49,68
250,079	52,99
250,623	49,83
251,168	51,34
251,712	47,87
252,256	54,15
252,8	49,31
253,343	47,77
253,887	47,96
254,43	48,7
254,974	50,35
255,517	45,97
256,06	38,36
256,603	50,94
257,146	43,1
257,689	45,25
258,232	44,83
258,774	50,18
259,317	45,42
259,859	46,86
260,401	40,91
260,943	45,52
261,485	53,9
262,027	42,07
262,569	48,5
263,11	47,29
263,652	46,69
264,193	42,86
264,734	44,05
265,275	47,39
265,816	50,36
266,357	43,88
266,898	37,88
267,438	44,31
267,979	45,45
268,519	49,1
269,059	44,68
269,6	55,79
270,14	43,89
270,68	40,61
271,219	43,16
271,759	39,93
272,298	48
272,838	41,86
273,377	46,3
273,916	42,6
274,455	37,16
274,994	38,13
275,533	41,64
276,072	49,62
276,61	46,42
277,149	38,77
277,687	47,69
278,225	42,47
278,763	44,2
279,301	46,79
279,839	44,57
280,377	44,89
280,914	39,19
281,452	54,47
281,989	46,08
282,526	47,31
283,064	50,69
283,601	43,56
284,137	44,89
284,674	47,92
285,211	39,93
285,747	48,47
286,284	38,95
286,82	50,35
287,356	45,7
287,892	42,11
288,428	34,24
288,964	46,57
289,5	50
290,035	47,48
290,571	40,3
291,106	43,64
291,641	40,61
292,176	48,12
292,711	46,9
293,246	43,32
293,781	39,03
294,315	40,81
294,85	50,73
295,384	50,74
295,918	46,34
296,453	39,58
296,987	46,21
297,52	38,7
298,054	43,75
298,588	50
299,121	46,15
299,655	50,18
300,188	46,77
300,721	49,66
301,254	49,47
301,787	41,06
302,32	49,24
302,853	45,64
303,385	52,38
303,918	41,05
304,45	47,88
304,982	49,8
305,514	47,23
306,046	45,61
306,578	46,43
307,11	44,98
307,641	42,91
308,173	37,92
308,704	51,72
309,236	48,31
309,767	42,5
310,298	48,08
310,829	52,47
311,359	50,89
311,89	51,25
312,421	50
312,951	48,73
313,481	49,4
314,012	44,69
314,542	38,01
315,072	44
315,601	45,91
316,131	45,99
316,661	49,58
317,19	47,33
317,72	52,01
318,249	43,24
318,778	55,89
319,307	42,91
319,836	49,33
320,365	43,32
320,893	48,23
321,422	44,03
321,95	42,96
322,479	51,9
323,007	46,01
323,535	50,94
324,063	54,85
324,591	42,33
325,118	44,41
325,646	50,77
326,173	44,64
326,701	41,09
327,228	46,96
327,755	44,09
328,282	50,94
328,809	46,67
329,336	50,17
329,862	48,46
330,389	44,03
330,915	46,81
331,441	45,08
331,968	41,58
332,494	38,46
333,02	40,51
333,545	39,71
334,071	44,67
334,597	47,3
335,122	38,13
335,648	52,01
336,173	48,18
336,698	40,41
337,223	50,17
337,748	44,56
338,272	42,24
338,797	42,07
339,322	36,54
339,846	45,7
340,37	36,63
340,894	47,26
341,419	41,28
341,942	45,3
342,466	43
342,99	35,08
343,514	35,39
344,037	39,02
344,56	41,69
345,084	38,49
345,607	41,03
346,13	41,54
346,653	38,05
347,175	40,65
347,698	36,31
348,221	36,92
348,743	37,32
349,265	37,8
349,787	35,43
350,309	40,5
350,831	34,93
351,353	38,1
351,875	37,64
352,397	32,23
352,918	45,2
353,439	41,19
353,961	39,72
354,482	39,89
355,003	28,15
355,524	41,33
356,044	32,72
356,565	34,41
357,086	33,08
357,606	29,16
358,126	33,58
358,646	33,83
359,167	35,63
359,687	31,6
360,206	33,73
360,726	30,96
361,246	32,77
361,765	32,89
362,285	31,52
362,804	26,22
363,323	30,96
363,842	30,24
364,361	27,92
364,88	33,97
365,398	32,01
365,917	33,06
366,435	29,18
366,954	30,46
367,472	30,28
367,99	27,1
368,508	31,25
369,026	27,52
369,544	26,55
370,061	30,23
370,579	30,96
371,096	27,92
371,613	28,07
372,131	30,46
372,648	32,85
373,165	28,25
373,681	26,62
374,198	28,36
374,715	27,43
375,231	27,34
375,747	27,44
376,264	27,8
376,78	29,35
377,296	25,79
377,812	26,26
378,327	28,59
378,843	30,43
379,359	25,36
379,874	25,14
380,389	24,62
380,905	27,59
381,42	25,46
381,935	23,73
382,449	25,67
382,964	28,99
383,479	24,52
383,993	24,4
384,508	24,12
385,022	24,5
385,536	21,25
386,05	23,29
386,564	21,93
387,078	21,05
387,592	23,02
388,105	20,55
388,619	21,14
389,132	21,2
389,645	22,53
390,158	19,16
390,671	22,94
391,184	19,18
391,697	19,34
392,21	19,98
392,722	19,48
393,235	19,89
393,747	19,33
394,259	19,97
394,771	16,58
395,283	21,02
395,795	19,02
396,307	17,82
396,818	17,62
397,33	15,77
397,841	17,68
398,353	18,51
398,864	17,91
399,375	15,68
399,886	16,87
400,397	16,32
400,907	17,01
401,418	14,69
401,928	14,25
402,439	15,23
402,949	15,14
403,459	15,43
403,969	15,07
404,479	14,25
404,989	13,59
405,498	13,76
406,008	11,62
406,517	12,78
407,027	12,89
407,536	11,37
408,045	11,26
408,554	10,91
409,063	10,49
409,572	10,16
410,08	11
410,589	8,89
411,097	9,7
411,606	9,44
412,114	9,38
412,622	9,15
413,13	9,16
413,638	8,65
414,145	7,75
414,653	8,23
415,16	8,29
415,668	7,24
416,175	7,45
416,682	7,22
417,189	6,92
417,696	7,3
418,203	7,43
418,71	6,88
419,216	5,98
419,723	6,82
420,229	6,89
420,735	6,14
421,242	6,7
421,748	6,7
422,254	6,46
422,759	5,69
423,265	6,17
423,771	6,34
424,276	6,31
424,781	5,7
425,287	6,11
425,792	6,07
426,297	5,9
426,802	5,83
427,306	5,64
427,811	5,3
428,316	5,61
428,82	5,86
429,324	6,13
429,829	6,06
430,333	5,5
430,837	5,56
431,34	5,41
431,844	5,64
432,348	5,24
432,851	5,65
433,355	5,21
433,858	5,06
434,361	5,41
434,864	5,4
435,367	5,27
435,87	5,43
436,373	5,41
436,876	5,01
437,378	5,07
437,88	5,04
438,383	5,33
438,885	5,26
439,387	5
439,889	4,67
440,391	5,46
440,892	5,04
441,394	5,26
441,896	5,29
442,397	4,87
442,898	5,12
443,399	5,38
443,9	5,32
444,401	4,97
444,902	5,13
445,403	5,1
445,903	5,09
446,404	5,04
446,904	5,02
447,405	4,96
447,905	5,33
448,405	5,16
448,905	5,09
449,404	5,21
449,904	5,27
450,404	5,06
450,903	5,38
451,403	5,2
451,902	5,32
452,401	5,22
452,9	5,12
453,399	5,22
453,898	5,33
454,396	5,28
454,895	5,42
455,393	5,03
455,892	5,51
456,39	5,36
456,888	5,31
457,386	5,41
457,884	5,46
458,382	5,49
458,879	5,35
459,377	5,41
459,874	5,58
460,372	5,19
460,869	5,73
461,366	5,5
461,863	5,49
462,36	5,42
462,857	5,22
463,353	5,25
463,85	5,38
464,346	5,33
464,843	5,38
465,339	5,33
465,835	5,41
466,331	5,17
466,827	5,14
467,323	5,08
467,818	5,31
468,314	5,43
468,809	5,33
469,305	5,24
469,8	5,12
470,295	5,44
470,79	5,47
471,285	5,11
471,78	5,36
472,274	5,38
472,769	5,29
473,263	5,34
473,758	5,38
474,252	5,42
474,746	5,52
475,24	5,4
475,734	5,39
476,228	5,29
476,721	5,48
477,215	5,32
477,708	5,33
478,202	5,36
478,695	5,22
479,188	5,26
479,681	5,01
480,174	5,27
480,667	5,36
481,159	5,2
481,652	5,44
482,144	5,29
482,637	5,44
483,129	5,29
483,621	5,41
484,113	5,8
484,605	5,4
485,097	5,53
485,588	5,41
486,08	5,6
486,571	5,42
487,063	5,54
487,554	5,69
488,045	5,49
488,536	5,69
489,027	5,85
489,518	5,67
490,008	5,65
490,499	5,49
490,989	5,62
491,48	5,65
491,97	5,73
492,46	5,83
492,95	5,66
493,44	5,97
493,93	5,82
494,419	6,03
494,909	6,01
495,398	5,97
495,888	6,05
496,377	6,16
496,866	6,09
497,355	6,25
497,844	6,26
498,333	6,23
498,821	6,26
499,31	6,59
499,798	6,55
500,287	6,74
500,775	6,74
501,263	6,61
501,751	6,69
502,239	6,9
502,727	6,89
503,215	7,34
503,702	7,25
504,19	7,42
504,677	7,11
505,164	7,52
505,651	7,78
506,139	7,83
506,625	7,94
507,112	8,11
507,599	8,56
508,086	8,62
508,572	8,45
509,058	8,6
509,545	8,72
510,031	8,83
510,517	9,34
511,003	9,7
511,489	9,49
511,974	9,91
512,46	9,8
512,946	10,3
513,431	10,29
513,916	10,52
514,401	11,03
514,887	11,19
515,371	11,2
515,856	11,77
516,341	11,96
516,826	12,11
517,31	12,37
517,795	12,22
518,279	12,85
518,763	13,14
519,247	13,28
519,731	13,69
520,215	13,84
520,699	14,39
521,182	14,28
521,666	14,73
522,149	14,98
522,633	15,51
523,116	15,85
523,599	15,73
524,082	16,2
524,565	16,55
525,048	16,62
525,53	16,88
526,013	17,07
526,495	17,21
526,978	17,52
527,46	17,95
527,942	17,96
528,424	18,61
528,906	18,39
529,388	18,71
529,87	18,93
530,351	18,99
530,833	19,26
531,314	19,96
531,795	19,78
532,277	19,95
532,758	20,05
533,238	19,82
533,719	20,07
534,2	20,14
534,681	20,13
535,161	20,57
535,642	20,29
536,122	20,7
536,602	21,06
537,082	20,5
537,562	20,78
538,042	21
538,522	21,14
539,001	20,91
539,481	20,95
539,96	20,9
540,44	21,2
540,919	21,4
541,398	21,38
541,877	21,31
542,356	20,99
542,835	21,48
543,313	21,83
543,792	21,33
544,27	21,36
544,749	21,58
545,227	21,46
545,705	21,78
546,183	21,83
546,661	22,02
547,139	21,6
547,616	21,78
548,094	21,86
548,571	22,03
549,049	22
549,526	21,93
550,003	22,2
550,48	22,17
550,957	22,01
551,434	21,98
551,911	22,03
552,387	21,98
552,864	22,19
553,34	22,11
553,817	22,14
554,293	22,18
554,769	22,12
555,245	22,03
555,721	22
556,197	22,02
556,672	22,05
557,148	21,82
557,623	21,77
558,099	21,52
558,574	21,89
559,049	21,7
559,524	22,11
559,999	21,98
560,474	21,42
560,948	21,64
561,423	21,54
561,897	21,34
562,372	21,47
562,846	21,19
563,32	21,13
563,794	20,87
564,268	20,67
564,742	20,78
565,216	20,47
565,69	20,7
566,163	20,25
566,636	20,43
567,11	20,13
567,583	19,77
568,056	19,88
568,529	20,01
569,002	19,66
569,475	19,45
569,947	19,47
570,42	19,19
570,892	18,98
571,365	18,75
571,837	18,56
572,309	18,68
572,781	18,24
573,253	18,03
573,725	18,03
574,197	17,82
574,668	17,56
575,14	17,58
575,611	17,3
576,082	17,52
576,554	17,09
577,025	17,32
577,496	16,87
577,967	16,8
578,437	16,92
578,908	16,41
579,379	16,24
579,849	16,28
580,319	16,22
580,79	15,97
581,26	15,88
581,73	16,23
582,2	15,7
582,669	15,88
583,139	15,7
583,609	15,62
584,078	15,44
584,548	15,31
585,017	15,34
585,486	15,08
585,955	15,05
586,424	15,03
586,893	14,8
587,362	14,91
587,83	14,64
588,299	14,64
588,767	14,76
589,236	14,46
589,704	14,58
590,172	14,56
590,64	14,44
591,108	14,28
591,576	14,35
592,043	14,2
592,511	14,26
592,978	14,31
593,446	14,18
593,913	13,97
594,38	14,04
594,847	13,77
595,314	13,88
595,781	13,81
596,248	13,99
596,715	13,78
597,181	13,54
597,647	13,91
598,114	13,8
598,58	14,1
599,046	13,71
599,512	13,73
599,978	13,65
600,444	13,65
600,91	13,57
601,375	13,59
601,841	13,51
602,306	13,63
602,771	13,6
603,236	13,51
603,702	13,41
604,167	13,16
604,631	13,08
605,096	13,29
605,561	13,3
606,025	13,05
606,49	13,01
606,954	12,75
607,418	13
607,882	12,85
608,347	12,71
608,81	12,69
609,274	12,54
609,738	12,55
610,202	12,45
610,665	12,26
611,128	12,17
611,592	12,02
612,055	12,13
612,518	11,91
612,981	11,95
613,444	11,84
613,907	11,85
614,369	11,66
614,832	11,69
615,294	11,46
615,757	11,34
616,219	11,52
616,681	11,27
617,143	11,28
617,605	11,12
618,067	11,18
618,529	10,96
618,99	10,96
619,452	11,04
619,913	10,96
620,375	10,76
620,836	10,88
621,297	10,65
621,758	10,78
622,219	10,57
622,68	10,57
623,14	10,43
623,601	10,54
624,061	10,43
624,522	10,44
624,982	10,44
625,442	10,4
625,902	10,48
626,362	10,32
626,822	10,4
627,282	10,36
627,742	10,21
628,201	10,34
628,661	10,33
629,12	10,29
629,579	10,02
630,038	10,1
630,497	10,17
630,956	10,25
631,415	10,16
631,874	10,13
632,332	10,26
632,791	10,15
633,249	9,89
633,708	10,02
634,166	9,94
634,624	10,01
635,082	9,88
635,54	9,85
635,998	10
636,455	9,8
636,913	9,63
637,37	9,57
637,828	9,47
638,285	9,45
638,742	9,29
639,199	9,23
639,656	9,19
640,113	9,06
640,57	8,91
641,027	8,96
641,483	8,81
641,94	8,57
642,396	8,51
642,852	8,49
643,309	8,36
643,765	8,17
644,221	8,14
644,676	8,08
645,132	8
645,588	7,97
646,043	7,85
646,499	7,64
646,954	7,73
647,409	7,55
647,864	7,49
648,319	7,39
648,774	7,3
649,229	7,33
649,684	7,24
650,139	7,05
650,593	7,1
651,047	7,09
651,502	7,07
651,956	7
652,41	6,98
652,864	6,94
653,318	6,82
653,772	6,84
654,225	6,85
654,679	6,83
655,133	6,73
655,586	6,74
656,039	6,63
656,492	6,6
656,946	6,52
657,399	6,52
657,851	6,44
658,304	6,39
658,757	6,27
659,209	6,17
659,662	6,09
660,114	6,19
660,567	6,07
661,019	6,02
661,471	5,96
661,923	6,02
662,375	5,89
662,826	5,85
663,278	5,78
663,73	5,73
664,181	5,65
664,632	5,67
665,084	5,61
665,535	5,56
665,986	5,55
666,437	5,6
666,888	5,56
667,338	5,5
667,789	5,48
668,24	5,57
668,69	5,57
669,14	5,56
669,591	5,57
670,041	5,57
670,491	5,6
670,941	5,64
671,391	5,64
671,84	5,67
672,29	5,79
672,74	5,66
673,189	5,73
673,638	5,79
674,088	5,97
674,537	5,95
674,986	5,92
675,435	5,98
675,883	6,05
676,332	6,06
676,781	6,25
677,229	6,23
677,678	6,36
678,126	6,38
678,574	6,48
679,022	6,58
679,47	6,69
679,918	6,84
680,366	6,79
680,814	6,96
681,261	7,04
681,709	7,09
682,156	7,12
682,604	7,16
683,051	7,3
683,498	7,41
683,945	7,57
684,392	7,57
684,839	7,79
685,286	7,79
685,732	7,83
686,179	8
686,625	8,16
687,071	8,26
687,518	8,33
687,964	8,56
688,41	8,7
688,856	8,87
689,301	9,18
689,747	9,25
690,193	9,77
690,638	9,87
691,084	10,14
691,529	10,46
691,974	10,96
692,419	11,13
692,864	11,54
693,309	12,05
693,754	12,45
694,199	12,83
694,643	13,25
695,088	13,78
695,532	14,28
695,977	14,73
696,421	15,13
696,865	15,79
697,309	16,15
697,753	16,71
698,197	17,12
698,64	17,81
699,084	18,06
699,527	18,62
699,971	19,12
700,414	19,73
700,857	20,29
701,3	20,7
701,743	21,21
702,186	21,63
702,629	22,3
703,072	22,69
703,515	23,32
703,957	23,67
704,399	24,07
704,842	24,66
705,284	24,98
705,726	25,51
706,168	25,9
706,61	26,26
707,052	26,74
707,494	27,15
707,935	27,24
708,377	28
708,818	28,2
709,26	28,94
709,701	29,02
710,142	29,42
710,583	29,94
711,024	30,28
711,465	30,47
711,905	31,05
712,346	31,25
712,787	31,65
713,227	32
713,667	32,47
714,108	32,71
714,548	33,05
714,988	33,45
715,428	33,48
715,868	33,96
716,307	34,28
716,747	34,65
717,186	34,6
717,626	35,06
718,065	35,36
718,504	35,75
718,944	36,15
719,383	36,33
719,822	36,43
720,261	37,04
720,699	37,25
721,138	37,54
721,576	37,64
722,015	37,87
722,453	37,92
722,892	38,28
723,33	38,33
723,768	38,83
724,206	39,08
724,644	39,1
725,081	39,41
725,519	39,32
725,957	39,69
726,394	39,93
726,832	40,23
727,269	40,18
727,706	40,54
728,143	40,6
728,58	40,9
729,017	40,75
729,454	40,78
729,89	41,22
730,327	41,42
730,764	41,29
731,2	41,53
731,636	41,26
732,072	41,67
732,509	41,79
732,945	41,94
733,38	42,06
733,816	42,21
734,252	41,99
734,688	42,43
735,123	42,38
735,559	42,42
735,994	42,59
736,429	42,56
736,864	42,65
737,299	42,61
737,734	42,92
738,169	42,85
738,604	42,73
739,038	42,89
739,473	43,44
739,907	42,99
740,342	43,36
740,776	42,95
741,21	43,26
741,644	43,16
742,078	42,82
742,512	43,41
742,946	43,3
743,379	42,98
743,813	43,27
744,246	43,54
744,68	43,03
745,113	43,15
745,546	43,29
745,979	43,22
746,412	43,37
746,845	43,19
747,278	43,19
747,711	43,33
748,143	43,03
748,576	43,42
749,008	43,15
749,441	43,03
749,873	43,12
750,305	43,28
750,737	43,03
751,169	43,01
751,601	43,41
752,032	42,97
752,464	43,02
752,896	42,84
753,327	42,98
753,758	43,12
754,19	42,96
754,621	42,94
755,052	42,74
755,483	42,86
755,914	42,94
756,344	42,82
756,775	42,89
757,206	42,99
757,636	42,68
758,066	42,78
758,497	42,75
758,927	42,59
759,357	42,73
759,787	42,74
760,217	42,43
760,647	42,64
761,076	42,6
761,506	42,67
761,935	42,62
762,365	42,33
762,794	42,37
763,223	42,63
763,653	42,49
764,082	42,32
764,51	42,24
764,939	42,28
765,368	42,49
765,797	42,29
766,225	42,38
766,654	42,18
767,082	42,39
767,51	42,1
767,938	42,02
768,367	42,26
768,795	42,07
769,222	42,43
769,65	41,97
770,078	41,93
770,505	42,17
770,933	42,06
771,36	41,82
771,788	42,02
772,215	41,75
772,642	42,08
773,069	42,25
773,496	41,75
773,923	41,95
774,349	42
774,776	41,59
775,203	41,55
775,629	41,95
776,055	42,01
776,482	41,99
776,908	41,84
777,334	41,97
777,76	41,67
778,186	41,76
778,611	41,74
779,037	41,7
779,463	41,53
779,888	41,95
780,314	42,02
780,739	41,7
781,164	41,59
781,589	41,82
782,014	41,84
782,439	41,61
782,864	41,66
783,289	41,69
783,713	41,44
784,138	41,74
784,562	41,56
784,987	41,6
785,411	41,34
785,835	41,75
786,259	41,45
786,683	41,7
787,107	41,97
787,531	41,6
787,954	41,41
788,378	41,43
788,802	41,64
789,225	41,31
789,648	41,34
790,071	41,77
790,495	41,55
790,918	41,12
791,34	41,76
791,763	41,73
792,186	41,47
792,609	41,36
793,031	41,41
793,454	41,32
793,876	41,46
794,298	41,41
794,721	41,45
795,143	41,28
795,565	41,2
795,986	41,38
796,408	41,37
796,83	41,16
797,252	41,3
797,673	41,45
798,094	41,39
798,516	41,43
798,937	41,02
799,358	41,38
799,779	41,26
800,2	41,12
800,621	41,08
801,042	41,47
801,462	41,34
801,883	41,46
802,303	41,27
802,724	41,28
803,144	41,41
803,564	41,24
803,984	41,15
804,404	41,03
804,824	41,23
805,244	41,18
805,664	41,12
806,084	41,35
806,503	41,34
806,923	41,22
807,342	41,55
807,761	41,13
808,18	41,3
808,599	40,96
809,018	41,2
809,437	41,11
809,856	41,26
810,275	41,3
810,693	41,52
811,112	41,33
811,53	41,38
811,949	41,22
812,367	41,17
812,785	41,06
813,203	41,12
813,621	41,33
814,039	41,13
814,457	41,3
814,874	41,04
815,292	41,27
815,709	40,86
816,127	40,89
816,544	41,42
816,961	41,13
817,378	41,42
817,795	41,16
818,212	41,1
818,629	41,22
819,046	41,27
819,462	41,11
819,879	41,33
820,295	41,1
820,712	41,16
821,128	41,18
821,544	41,09
821,96	41,26
822,376	40,58
822,792	41,38
823,208	41,26
823,624	40,93
824,039	40,87
824,455	41,18
824,87	41,06
825,286	41,36
825,701	41,18
826,116	40,93
826,531	40,98
826,946	41,08
827,361	41,08
827,776	41,05
828,19	40,83
828,605	41,32
829,02	40,81
829,434	40,85
829,848	40,96
830,263	41,28
830,677	40,88
831,091	41,41
831,505	41,13
831,919	41,03
832,332	41,01
832,746	41,02
833,16	41,21
833,573	40,93
833,987	40,9
834,4	40,76
834,813	41,23
835,226	40,9
835,639	40,88
836,052	40,98
836,465	41,33
836,878	40,87
837,29	40,86
837,703	40,92
838,116	41,21
838,528	40,8
838,94	41,01
839,352	40,85
839,765	40,82
840,177	40,97
840,589	40,94
841	41,29
841,412	40,72
841,824	40,8
842,235	41,01
842,647	40,9
843,058	40,98
843,47	40,75
843,881	40,77
844,292	41
844,703	40,75
845,114	40,71
845,525	41,05
845,935	41,03
846,346	40,7
846,757	40,85
847,167	40,98
847,577	40,97
847,988	40,95
848,398	40,87
848,808	40,9
849,218	41,01
849,628	40,64
850,038	40,68
850,448	40,84
850,857	40,75
851,267	40,94
851,676	41,2
852,086	40,89
852,495	40,73
852,904	40,89
853,313	41,07
853,722	40,51
854,131	40,71
854,54	40,81
854,949	40,91
855,357	40,92
855,766	40,66
856,174	40,54
856,583	40,64
856,991	40,71
857,399	40,71
857,807	40,7
858,215	40,88
858,623	40,48
859,031	40,93
859,439	41
859,846	40,69
860,254	40,59
860,661	40,94
861,069	40,72
861,476	40,73
861,883	40,74
862,29	40,93
862,697	40,76
863,104	40,6
863,511	40,87
863,918	40,8
864,325	40,41
864,731	40,71
865,138	40,72
865,544	40,97
865,95	40,67
866,357	40,93
866,763	41,02
867,169	40,68
867,575	40,74
867,98	40,77
868,386	40,86
868,792	40,92
869,197	40,82
869,603	40,68
870,008	40,75
870,414	40,6
870,819	41,02
871,224	40,75
871,629	40,85
872,034	40,73
872,439	40,72
872,844	40,74
873,248	40,6
873,653	40,95
874,057	41,14
874,462	40,61
874,866	40,73
875,27	40,69
875,674	40,84
876,078	40,6
876,482	40,79
876,886	40,69
877,29	40,85
877,694	40,94
878,097	41,04
878,501	40,97
878,904	40,78
879,308	41,07
879,711	40,76
880,114	40,67
880,517	40,92
880,92	40,6
881,323	40,79
881,726	41,02
882,128	41,08
882,531	40,79
882,934	40,62
883,336	40,81
883,738	40,67
884,141	40,77
884,543	40,73
884,945	40,65
885,347	40,96
885,749	40,79
886,151	40,38
886,552	40,7
886,954	40,59
887,355	41,03
887,757	40,95
888,158	40,63
888,56	40,7
888,961	40,73
889,362	40,86
889,763	40,66
890,164	41,21
890,565	40,81
890,965	40,67
891,366	40,9
891,767	40,74
892,167	40,71
892,567	40,75
892,968	40,8
893,368	40,75
893,768	40,7
894,168	40,72
894,568	41
894,968	40,56
895,368	40,7
895,767	40,61
896,167	40,77
896,566	40,69
896,966	40,79
897,365	40,83
897,764	40,7
898,164	40,96
898,563	40,8
898,962	40,71
899,361	40,58
899,759	40,61
900,158	40,88
900,557	40,83
900,955	40,68
901,354	41
901,752	40,97
902,15	41,06
902,548	40,56
902,947	40,68
903,345	40,78
903,742	40,8
904,14	40,63
904,538	40,71
904,936	41,08
905,333	40,54
905,731	40,96
906,128	40,68
906,525	41
906,923	41,07
907,32	40,8
907,717	40,54
908,114	40,89
908,511	40,93
908,907	40,89
909,304	40,88
909,701	40,35
910,097	41,04
910,494	40,48
910,89	41,17
911,286	40,61
911,682	40,6
912,078	40,57
912,474	40,95
912,87	40,81
913,266	40,78
913,662	40,58
914,058	40,51
914,453	40,78
914,849	40,38
915,244	40,71
915,639	40,49
916,034	40,52
916,43	40,81
916,825	40,64
917,22	40,73
917,614	40,96
918,009	41,01
918,404	40,57
918,798	40,68
919,193	40,58
919,587	40,54
919,982	40,42
920,376	40,96
920,77	40,99
921,164	40,89
921,558	40,76
921,952	40,8
922,346	40,46
922,74	40,76
923,133	40,77
923,527	40,88
923,92	40,46
924,314	40,64
924,707	40,87
925,1	40,33
925,493	40,89
925,886	40,39
926,279	40,95
926,672	40,56
927,065	40,73
927,457	40,98
927,85	40,63
928,243	40,47
928,635	40,96
929,027	40,61
929,42	40,94
929,812	40,57
930,204	40,93
930,596	40,52
930,988	40,2
931,379	40,44
931,771	40,57
932,163	40,6
932,554	40,28
932,946	40,39
933,337	40,08
933,729	40,57
934,12	40,4
934,511	40,25
934,902	40,62
935,293	40,8
935,684	40,79
936,075	40,21
936,465	40,27
936,856	40,21
937,246	40,48
937,637	40,06
938,027	40,08
938,417	40,25
938,808	40,54
939,198	40,43
939,588	40,49
939,978	39,95
940,368	39,22
940,757	40,44
941,147	40,18
941,537	40,03
941,926	40,42
942,315	39,38
942,705	40,95
943,094	40,94
943,483	40,24
943,872	40,24
944,261	40,22
944,65	40,52
945,039	39,98
945,428	40,36
945,816	39,7
946,205	40,62
946,593	40,03
946,982	40,08
947,37	39,73
947,758	40,19
948,146	39,44
948,534	39,98
948,922	40,39
949,31	40,73
949,698	40,48
950,086	39,77
950,473	40,36
950,861	39,32
951,248	39,76
951,636	39,73
952,023	39,41
952,41	39,58
952,797	39,6
953,184	39,67
953,571	39,45
953,958	39,64
954,345	39,33
954,731	39,38
955,118	39,67
955,505	39,58
955,891	39,43
956,277	39,61
956,664	39,93
957,05	39,52
957,436	39,55
957,822	39,24
958,208	40,15
958,594	39,14
958,979	39,33
959,365	39,65
959,751	39,45
960,136	39,33
960,522	39,44
960,907	39,18
961,292	39,33
961,677	39,16
962,062	39,52
962,447	39,17
962,832	39,78
963,217	39,68
963,602	39,18
963,986	39
964,371	39,41
964,756	38,86
965,14	39,54
965,524	39,56
965,908	39,36
966,293	39,13
966,677	39,75
967,061	39,14
967,445	39,12
967,828	39,27
968,212	39,37
968,596	39,42
968,979	39,04
969,363	39,35
969,746	39,09
970,129	39,8
970,513	39,37
970,896	39,94
971,279	39,36
971,662	39,02
972,045	39,7
972,428	39,29
972,81	39,18
973,193	39,27
973,575	39
973,958	39,43
974,34	39,84
974,723	39,53
975,105	39,07
975,487	39,42
975,869	39,29
976,251	39,28
976,633	39,48
977,015	39,48
977,396	39,36
977,778	39,66
978,16	39,55
978,541	38,98
978,922	39,87
979,304	39,21
979,685	39,3
980,066	39,46
980,447	39,3
980,828	39,23
981,209	39,65
981,59	39,37
981,97	39,81
982,351	39,53
982,732	39,04
983,112	39,58
983,493	39,46
983,873	39,15
984,253	39,65
984,633	39,3
985,013	39,73
985,393	39,6
985,773	39,38
986,153	39,8
986,533	39,42
986,912	39,42
987,292	39,68
987,671	39,22
988,051	39,64
988,43	39,5
988,809	39,6
989,188	39,73
989,567	39,83
989,946	39,56
990,325	39,91
990,704	39,91
991,083	39,67
991,461	39,56
991,84	39,5
992,218	39,95
992,597	39,7
992,975	39,82
993,353	39,38
993,732	40,26
994,11	39,53
994,488	39,59
994,866	39,46
995,243	39,83
995,621	39,83
995,999	39,45
996,376	39,84
996,754	39,94
997,131	39,97
997,509	39,32
997,886	39,49
998,263	39,17
998,64	39,66
999,017	39,67
999,394	39,89
999,771	39,9
1000,148	39,28
1000,524	39,77
1000,901	40,07
1001,277	39,85
1001,654	39,39
1002,03	39,35
1002,406	40,04
1002,783	39,29
1003,159	40,55
1003,535	39,3
1003,911	39,84
1004,286	39,57
1004,662	39,6
1005,038	39,52
1005,414	40,16
1005,789	39,77
1006,164	39,71
1006,54	40,05
1006,915	39,99
1007,29	40,3
1007,665	39,96
1008,04	39,61
1008,415	40,09
1008,79	40,08
1009,165	39,71
1009,54	39,67
1009,914	39,83
1010,289	39,93
1010,663	39,85
1011,038	39,26
1011,412	39,91
1011,786	39,47
1012,16	40,51
1012,535	39,62
1012,909	40,21
1013,282	40,2
1013,656	39,81
1014,03	40,11
1014,404	40,21
1014,777	40,67
1015,151	40,08
1015,524	40,64
1015,897	40,55
1016,271	40,52
1016,644	39,52
1017,017	40,22
1017,39	39,4
1017,763	40,42
1018,136	40,17
1018,508	41,08
1018,881	40,01
1019,254	40,23
1019,626	39,92
1019,999	39,91
1020,371	39,99
1020,743	40,24
1021,116	40,47
1021,488	40,19
1021,86	40,79
1022,232	40,51
1022,604	40,15
1022,975	40,79
1023,347	40,25
1023,719	40,22
1024,09	40,26
1024,462	39,78
1024,833	40,52
1025,204	40,73
1025,576	40,41
1025,947	40,93
1026,318	40,59
1026,689	40,5
1027,06	40,01
1027,431	39,77
1027,801	40,15
1028,172	40,46
1028,543	40,54
1028,913	40,62
1029,284	40,12
1029,654	40,1
1030,024	39,98
1030,394	40,28
1030,764	41,1
1031,135	39,99
1031,504	40,49
1031,874	40,25
1032,244	40,03
1032,614	40,94
1032,983	40,5
1033,353	40,35
1033,722	40,89
1034,092	41,17
1034,461	40,58
1034,83	40,59
1035,2	40,77
1035,569	40,52
1035,938	40,46
1036,307	40,77
1036,675	40,59
1037,044	40,42
1037,413	40
1037,781	40,29
1038,15	40,71
1038,518	40,7
1038,887	41,4
1039,255	40,32
1039,623	40,9
1039,991	40,75
1040,359	40,3
1040,727	40,67
1041,095	40,64
1041,463	41,11
1041,831	40,93
1042,198	40,06
1042,566	40,58
1042,933	40,49
1043,301	41,13
1043,668	40,34
1044,035	39,88
1044,402	41,06
1044,77	41,38
1045,137	40,67
1045,503	40,22
1045,87	41,17
1046,237	40,47
1046,604	40,51
1046,97	40,57
1047,337	40,75
1047,703	39,95
1048,07	41,28
1048,436	40,87
1048,802	41,46
1049,168	40,86
1049,534	41,24
1049,9	41,09
1050,266	40,83
1050,632	42,01
1050,998	41,52
1051,364	40,29
1051,729	40,47
1052,095	40,45
1052,46	40,65
1052,825	40,79
1053,191	40,78
1053,556	41,09
1053,921	41,51
1054,286	41,19
1054,651	40,92
1055,016	41,7
1055,381	40,68
1055,745	41,58
1056,11	42,31
1056,475	40,85
1056,839	41,29
1057,203	41,13
1057,568	40,96
1057,932	39,58
1058,296	40,32
1058,66	40,38
1059,024	41,96
1059,388	41,07
1059,752	41,91
1060,116	40,63
1060,48	42,29
1060,843	40,89
1061,207	40,17
1061,57	40,96
1061,934	40,48
1062,297	40,93
1062,66	40,78
1063,023	42,08
1063,386	39,98
1063,749	41,1
1064,112	40,59
1064,475	41,16
1064,838	40,28
1065,201	41,88
1065,563	40,79
1065,926	41,66
1066,288	41,64
1066,651	40,52
1067,013	40,42
1067,375	40,63
1067,737	40,2
1068,099	41,06
1068,461	41,26
1068,823	40,97
1069,185	41,94
1069,547	40,16
1069,909	40,65
1070,27	41,54
1070,632	40,37
1070,993	39,93
1071,355	40,38
1071,716	42,34
1072,077	41,83
1072,438	41,55
1072,799	42,66
1073,16	42,92
1073,521	41,54
1073,882	40,93
1074,243	40,24
1074,603	41,59
1074,964	41,37
1075,325	41,6
1075,685	41,87
1076,045	39,83
1076,406	41,55
1076,766	42,47
1077,126	41,04
1077,486	40,55
1077,846	40,19
1078,206	41,47
1078,566	41,25
1078,925	40,63
1079,285	41,1
1079,645	42,04
1080,004	40,99
1080,364	40,2
1080,723	41,25
1081,082	41,85
1081,442	41,55
1081,801	41,36
1082,16	41,18
1082,519	42,05
1082,878	41,53
1083,237	40,72
1083,595	42,54
1083,954	40,96
1084,313	41,8
1084,671	42,82
1085,03	40,01
1085,388	41,39
1085,746	41,91
1086,104	40,65
1086,463	41,22
1086,821	42,43
1087,179	42,7
1087,537	41,72
1087,894	41,68
1088,252	40,44
1088,61	40,73
1088,967	40,97
1089,325	41,67
1089,682	40,62
1090,04	42,36
1090,397	39,65
1090,754	41,02
1091,111	41,86
1091,469	40,94
1091,826	40,76
1092,182	41,5
1092,539	41,91
1092,896	41,09
1093,253	41,46
1093,609	42,08
1093,966	40,19
1094,322	41,38
1094,679	39,65
1095,035	41,37
1095,391	41,19
1095,748	43,61
1096,104	40,4
1096,46	41,18
1096,816	40,61
1097,171	41,34
1097,527	41,3
1097,883	41,68
1098,239	43,12
1098,594	41,18
1098,95	41,94
1099,305	42,5
1099,66	40,7
1100,016	40,39
1100,371	42,08
1100,726	41,42
1101,081	39,77
1101,436	42,02
1101,791	42,87
1102,146	37,93
1102,5	44,03
1102,855	41,95
1103,21	41,5
1103,564	41,1
1103,918	41,04
1104,273	40,78
1104,627	41,31
1104,981	41,24
1105,335	42,76
1105,69	41,64
1106,043	43,06
1106,397	40,94
1106,751	42,9
1107,105	42,85
1107,459	40,98
1107,812	41,52
1108,166	43,99
1108,519	41,36
1108,873	42,23
1109,226	40,16
1109,579	41,62
1109,932	42,12
1110,285	38,59
1110,638	42,23
1110,991	42,52
1111,344	42,9
1111,697	41,22
1112,05	43,24
1112,402	43,02
1112,755	41,03
1113,107	43,04
1113,46	40,84
1113,812	41,29
1114,164	44,82
1114,517	43,14
1114,869	55,56
1115,221	56,45
1115,573	55,66
1115,924	54,01
