Data from C2__Relative__0__12-18-46-233.txt Node

Date: Fri Feb 02 12:18:46 CET 2024
User: diatiterra
Spectrometer: HDX00911
Trigger mode: 0
Integration Time (sec): 6,000000E-3
Scans to average: 2
Nonlinearity correction enabled: false
Boxcar width: 0
Storing dark spectrum: false
XAxis mode: Wavelengths
Number of Pixels in Spectrum: 2068
>>>>>Begin Spectral Data<<<<<
194,468	82,58
195,025	72,73
195,581	65,32
196,138	73,04
196,694	67,09
197,251	68,55
197,807	62,24
198,363	54,46
198,919	53,33
199,474	51
200,03	58,88
200,586	63,18
201,141	53,46
201,696	54,06
202,251	51,13
202,806	53,11
203,361	60,36
203,916	56,77
204,471	60,32
205,025	64,29
205,58	58,36
206,134	60,92
206,688	50,45
207,242	55,56
207,796	52,35
208,35	56,33
208,904	51,8
209,457	51,9
210,011	55,52
210,564	48,21
211,117	46,25
211,67	53,05
212,223	61,35
212,776	57,1
213,329	53,56
213,881	48,68
214,434	48,44
214,986	51,1
215,538	57,1
216,09	51,43
216,642	56,07
217,194	47,15
217,746	53,74
218,297	57,96
218,849	45,02
219,4	52
219,951	49,85
220,502	46,87
221,053	50,64
221,604	52,16
222,155	52,85
222,705	53,11
223,256	54,3
223,806	53,87
224,356	56,86
224,906	58,25
225,456	51,91
226,006	49,84
226,556	52,16
227,106	42,06
227,655	48,95
228,204	54,36
228,754	51,34
229,303	50,82
229,852	49,54
230,401	57,24
230,949	58,92
231,498	54,15
232,047	51,27
232,595	54,14
233,143	56,55
233,691	52,22
234,239	54,86
234,787	52,15
235,335	59,37
235,883	55,31
236,43	58,18
236,978	54,74
237,525	57,62
238,072	51,39
238,619	56,49
239,166	59,32
239,713	52,25
240,26	57,86
240,806	67,01
241,353	60,54
241,899	58,25
242,445	58,68
242,991	56,19
243,537	56,25
244,083	58,26
244,629	58,88
245,174	60,74
245,72	59,58
246,265	53,31
246,81	55,41
247,355	56,54
247,9	52,37
248,445	63,06
248,99	57,82
249,534	51,22
250,079	53,35
250,623	56,72
251,168	52,13
251,712	59,26
252,256	52,02
252,8	54,6
253,343	55,05
253,887	53,5
254,43	53,55
254,974	51,74
255,517	56,69
256,06	51,14
256,603	54,95
257,146	55,8
257,689	50,68
258,232	57,29
258,774	53,14
259,317	54,14
259,859	61,32
260,401	59,37
260,943	57,33
261,485	47,99
262,027	53,65
262,569	55,02
263,11	53,75
263,652	52,47
264,193	69,38
264,734	53,11
265,275	60,54
265,816	51,04
266,357	55,4
266,898	59,67
267,438	62,3
267,979	54,15
268,519	57,72
269,059	48,93
269,6	54,2
270,14	67,45
270,68	58,2
271,219	56,77
271,759	56,63
272,298	61,06
272,838	52,23
273,377	56,84
273,916	62,21
274,455	54,38
274,994	53,61
275,533	64,11
276,072	56,48
276,61	54,26
277,149	55,35
277,687	55,45
278,225	55,56
278,763	62,21
279,301	64,36
279,839	55,62
280,377	59,8
280,914	59,14
281,452	57,88
281,989	60
282,526	52,17
283,064	54,81
283,601	50,81
284,137	53,57
284,674	57,44
285,211	50,63
285,747	51,85
286,284	46,08
286,82	56,52
287,356	49,66
287,892	60,78
288,428	50,81
288,964	50,99
289,5	53,44
290,035	56,4
290,571	48,37
291,106	55,1
291,641	48,49
292,176	56,62
292,711	49,52
293,246	58,12
293,781	50
294,315	60,78
294,85	49,19
295,384	54,14
295,918	53,24
296,453	53,04
296,987	48,74
297,52	49,08
298,054	59,65
298,588	53,36
299,121	54,97
299,655	58,36
300,188	59,51
300,721	54,05
301,254	56,92
301,787	58,82
302,32	45,87
302,853	52,61
303,385	46,86
303,918	48,31
304,45	52,6
304,982	55,59
305,514	48,85
306,046	51,74
306,578	48,03
307,11	53,64
307,641	46,49
308,173	55
308,704	47,17
309,236	48,34
309,767	55,29
310,298	48,32
310,829	56,42
311,359	46,98
311,89	50,16
312,421	53,4
312,951	45,78
313,481	54,44
314,012	56,95
314,542	47,47
315,072	61,79
315,601	50,7
316,131	56,9
316,661	52,3
317,19	47,13
317,72	47,3
318,249	56,12
318,778	51,94
319,307	48,68
319,836	50,79
320,365	61,74
320,893	53,04
321,422	52,33
321,95	46,08
322,479	55,89
323,007	45,39
323,535	56,7
324,063	46,15
324,591	46,6
325,118	55,15
325,646	54,9
326,173	47,27
326,701	50,67
327,228	45
327,755	44,44
328,282	50,99
328,809	52,29
329,336	50,35
329,862	54,88
330,389	50,8
330,915	47,25
331,441	44,73
331,968	45,48
332,494	42,55
333,02	59,88
333,545	45,05
334,071	50,47
334,597	44,55
335,122	43,2
335,648	56,59
336,173	53,72
336,698	46,82
337,223	48,58
337,748	47,34
338,272	45,12
338,797	41,64
339,322	39,3
339,846	44,31
340,37	42,14
340,894	48,73
341,419	47,73
341,942	38,11
342,466	42,82
342,99	43,6
343,514	53,5
344,037	51,78
344,56	44,84
345,084	47,97
345,607	43,71
346,13	39,84
346,653	45,73
347,175	37,63
347,698	38,27
348,221	39,37
348,743	38,58
349,265	39,26
349,787	39,58
350,309	41,62
350,831	42,63
351,353	39,24
351,875	38,63
352,397	37,3
352,918	40,31
353,439	36,25
353,961	40,14
354,482	33,66
355,003	36,69
355,524	33,49
356,044	37,8
356,565	43
357,086	37,02
357,606	38,34
358,126	31,8
358,646	37,94
359,167	31,72
359,687	32,75
360,206	34,4
360,726	35,94
361,246	34,32
361,765	35,07
362,285	30,41
362,804	31,16
363,323	33,54
363,842	36,07
364,361	32,49
364,88	30,92
365,398	32,09
365,917	35,81
366,435	32,95
366,954	30,88
367,472	35,2
367,99	32,25
368,508	32,07
369,026	33,08
369,544	32,23
370,061	29,53
370,579	27,67
371,096	29,68
371,613	29,03
372,131	32,23
372,648	34,69
373,165	32,05
373,681	29,25
374,198	30,03
374,715	30,38
375,231	27,31
375,747	31,09
376,264	24,89
376,78	24,19
377,296	29,84
377,812	28,87
378,327	25,21
378,843	24,63
379,359	26,89
379,874	29,28
380,389	25,81
380,905	26,25
381,42	25,28
381,935	28,24
382,449	26,98
382,964	24,31
383,479	25,47
383,993	24,12
384,508	24,95
385,022	25,5
385,536	25,45
386,05	24,45
386,564	21,32
387,078	22,14
387,592	21,69
388,105	20,97
388,619	19,91
389,132	21,61
389,645	19,98
390,158	19,13
390,671	20,68
391,184	20,43
391,697	20,31
392,21	20,79
392,722	20,61
393,235	19,14
393,747	19,49
394,259	18,85
394,771	18,2
395,283	19,31
395,795	18,5
396,307	18,35
396,818	19,53
397,33	17,89
397,841	16,82
398,353	17,09
398,864	17,31
399,375	16,03
399,886	16,57
400,397	14,9
400,907	14,19
401,418	14,36
401,928	15,99
402,439	14,62
402,949	14,9
403,459	14,4
403,969	13,79
404,479	13,89
404,989	13,88
405,498	13,53
406,008	12,21
406,517	11,46
407,027	12,63
407,536	10,74
408,045	11,31
408,554	11,4
409,063	10,74
409,572	10,48
410,08	9,81
410,589	10,26
411,097	9,15
411,606	9,37
412,114	8,8
412,622	7,45
413,13	8,69
413,638	7,8
414,145	8,1
414,653	7,73
415,16	7,43
415,668	7,21
416,175	7,51
416,682	6,98
417,189	6,59
417,696	6,43
418,203	6,78
418,71	6,27
419,216	6,46
419,723	6,48
420,229	6,08
420,735	6,27
421,242	6,17
421,748	6,05
422,254	5,66
422,759	5,89
423,265	5,77
423,771	5,66
424,276	5,6
424,781	5,66
425,287	5,53
425,792	4,96
426,297	5,63
426,802	5,37
427,306	5,26
427,811	5,29
428,316	5,5
428,82	5,36
429,324	5,19
429,829	4,97
430,333	5,25
430,837	4,68
431,34	5,14
431,844	4,82
432,348	5,48
432,851	4,99
433,355	4,88
433,858	4,83
434,361	4,72
434,864	5,13
435,367	4,97
435,87	4,87
436,373	4,95
436,876	4,6
437,378	4,96
437,88	4,95
438,383	5,02
438,885	4,52
439,387	4,77
439,889	5,04
440,391	4,81
440,892	4,57
441,394	4,76
441,896	4,43
442,397	4,79
442,898	4,6
443,399	4,68
443,9	4,75
444,401	4,58
444,902	4,52
445,403	4,93
445,903	4,67
446,404	4,75
446,904	4,74
447,405	4,8
447,905	4,77
448,405	4,65
448,905	4,83
449,404	4,62
449,904	4,78
450,404	5,22
450,903	5,21
451,403	4,84
451,902	4,74
452,401	4,67
452,9	4,87
453,399	4,65
453,898	5,08
454,396	4,66
454,895	4,55
455,393	4,94
455,892	4,9
456,39	4,78
456,888	4,86
457,386	4,79
457,884	4,91
458,382	5,15
458,879	4,77
459,377	4,96
459,874	4,94
460,372	5,02
460,869	5,12
461,366	4,94
461,863	5,11
462,36	4,83
462,857	4,97
463,353	4,72
463,85	4,92
464,346	4,94
464,843	5,11
465,339	5,02
465,835	4,91
466,331	4,9
466,827	5,04
467,323	4,98
467,818	5,11
468,314	4,93
468,809	4,99
469,305	4,76
469,8	5,04
470,295	5,05
470,79	4,88
471,285	4,72
471,78	5,04
472,274	4,7
472,769	5,03
473,263	5,4
473,758	4,92
474,252	4,77
474,746	4,77
475,24	4,8
475,734	5,2
476,228	5,13
476,721	4,89
477,215	5,03
477,708	4,84
478,202	5,02
478,695	4,92
479,188	5,2
479,681	4,77
480,174	4,82
480,667	5,01
481,159	4,88
481,652	5,01
482,144	5,01
482,637	4,9
483,129	4,94
483,621	5
484,113	4,97
484,605	5,01
485,097	5,1
485,588	5,07
486,08	5,13
486,571	5,22
487,063	5,18
487,554	5,02
488,045	4,97
488,536	5,15
489,027	5,53
489,518	5,17
490,008	5,22
490,499	5,16
490,989	5,4
491,48	5,32
491,97	5,53
492,46	5,14
492,95	5,54
493,44	5,14
493,93	5,48
494,419	5,54
494,909	5,56
495,398	5,5
495,888	5,58
496,377	5,65
496,866	5,62
497,355	5,82
497,844	5,85
498,333	5,9
498,821	5,84
499,31	6,15
499,798	6,03
500,287	6,16
500,775	6,38
501,263	6
501,751	6,34
502,239	6,39
502,727	6,59
503,215	6,72
503,702	6,68
504,19	6,66
504,677	6,86
505,164	7,01
505,651	6,86
506,139	6,86
506,625	7,39
507,112	7,33
507,599	7,38
508,086	7,52
508,572	7,69
509,058	7,73
509,545	7,9
510,031	8,02
510,517	8,28
511,003	8,53
511,489	8,39
511,974	8,55
512,46	8,77
512,946	8,81
513,431	8,82
513,916	9,3
514,401	9,34
514,887	9,59
515,371	9,88
515,856	9,97
516,341	10,1
516,826	10,31
517,31	10,59
517,795	10,89
518,279	11,05
518,763	11,27
519,247	11,47
519,731	11,61
520,215	11,79
520,699	11,97
521,182	12,02
521,666	12,71
522,149	12,9
522,633	12,74
523,116	13,36
523,599	13,2
524,082	13,64
524,565	14,01
525,048	14,02
525,53	14,22
526,013	14,43
526,495	14,8
526,978	15,06
527,46	15,11
527,942	15,38
528,424	15,32
528,906	15,77
529,388	15,84
529,87	15,82
530,351	16,17
530,833	16,26
531,314	16,45
531,795	16,26
532,277	16,3
532,758	16,75
533,238	16,72
533,719	16,98
534,2	16,86
534,681	17,15
535,161	17,3
535,642	17,02
536,122	17,2
536,602	17,59
537,082	17,49
537,562	17,53
538,042	17,66
538,522	17,61
539,001	17,64
539,481	17,95
539,96	17,29
540,44	17,79
540,919	17,87
541,398	17,84
541,877	18,18
542,356	18,11
542,835	17,94
543,313	17,83
543,792	18,17
544,27	18,53
544,749	18,16
545,227	17,95
545,705	18,28
546,183	18,13
546,661	18,34
547,139	18,37
547,616	18,42
548,094	18,46
548,571	18,5
549,049	18,55
549,526	18,72
550,003	18,38
550,48	18,69
550,957	18,94
551,434	18,66
551,911	18,52
552,387	18,92
552,864	18,71
553,34	18,81
553,817	18,7
554,293	18,85
554,769	18,9
555,245	18,94
555,721	18,67
556,197	18,63
556,672	18,67
557,148	18,81
557,623	18,83
558,099	18,86
558,574	18,29
559,049	18,88
559,524	18,7
559,999	18,57
560,474	18,73
560,948	18,43
561,423	18,31
561,897	18,28
562,372	18,33
562,846	18,15
563,32	17,96
563,794	18,04
564,268	17,79
564,742	18,16
565,216	17,67
565,69	17,53
566,163	17,75
566,636	17,53
567,11	17,4
567,583	17,36
568,056	17,1
568,529	16,95
569,002	16,87
569,475	17,01
569,947	16,72
570,42	16,26
570,892	16,45
571,365	16,15
571,837	15,97
572,309	15,83
572,781	15,79
573,253	15,95
573,725	15,8
574,197	15,56
574,668	15,54
575,14	15,31
575,611	15,38
576,082	15,21
576,554	14,89
577,025	15,02
577,496	14,75
577,967	14,82
578,437	14,73
578,908	14,56
579,379	14,52
579,849	14,29
580,319	14,33
580,79	14,22
581,26	14
581,73	14
582,2	13,81
582,669	13,81
583,139	13,62
583,609	13,7
584,078	13,63
584,548	13,47
585,017	13,36
585,486	13,47
585,955	13,4
586,424	13,26
586,893	13,19
587,362	13,3
587,83	13,03
588,299	13,06
588,767	12,94
589,236	12,8
589,704	12,79
590,172	12,85
590,64	12,72
591,108	12,59
591,576	12,55
592,043	12,61
592,511	12,56
592,978	12,55
593,446	12,51
593,913	12,42
594,38	12,4
594,847	12,6
595,314	12,42
595,781	12,37
596,248	12,3
596,715	12,18
597,181	12,22
597,647	12,26
598,114	12,09
598,58	12,11
599,046	12,18
599,512	12,05
599,978	12,13
600,444	12,02
600,91	12,12
601,375	12,12
601,841	12,01
602,306	12,09
602,771	11,92
603,236	11,99
603,702	11,81
604,167	11,83
604,631	11,76
605,096	11,6
605,561	11,65
606,025	11,56
606,49	11,71
606,954	11,57
607,418	11,48
607,882	11,41
608,347	11,45
608,81	11,41
609,274	11,34
609,738	11,3
610,202	11,16
610,665	10,98
611,128	11,12
611,592	11,05
612,055	11,09
612,518	10,77
612,981	10,89
613,444	10,76
613,907	10,67
614,369	10,64
614,832	10,52
615,294	10,58
615,757	10,46
616,219	10,46
616,681	10,37
617,143	10,36
617,605	10,36
618,067	10,28
618,529	10,23
618,99	10,08
619,452	10,08
619,913	9,99
620,375	9,89
620,836	9,88
621,297	9,95
621,758	9,95
622,219	9,87
622,68	9,82
623,14	9,74
623,601	9,77
624,061	9,72
624,522	9,77
624,982	9,59
625,442	9,81
625,902	9,57
626,362	9,73
626,822	9,64
627,282	9,52
627,742	9,76
628,201	9,7
628,661	9,6
629,12	9,47
629,579	9,63
630,038	9,65
630,497	9,64
630,956	9,5
631,415	9,45
631,874	9,48
632,332	9,4
632,791	9,31
633,249	9,32
633,708	9,38
634,166	9,34
634,624	9,26
635,082	9,17
635,54	9,14
635,998	9,07
636,455	9,03
636,913	9
637,37	8,85
637,828	8,91
638,285	8,83
638,742	8,68
639,199	8,65
639,656	8,46
640,113	8,53
640,57	8,33
641,027	8,3
641,483	8,2
641,94	8,16
642,396	8,05
642,852	8,03
643,309	8
643,765	7,76
644,221	7,74
644,676	7,6
645,132	7,44
645,588	7,55
646,043	7,39
646,499	7,33
646,954	7,19
647,409	7,21
647,864	7,08
648,319	7,23
648,774	6,89
649,229	6,84
649,684	6,82
650,139	6,8
650,593	6,81
651,047	6,78
651,502	6,73
651,956	6,7
652,41	6,69
652,864	6,63
653,318	6,66
653,772	6,58
654,225	6,66
654,679	6,52
655,133	6,5
655,586	6,56
656,039	6,48
656,492	6,37
656,946	6,43
657,399	6,36
657,851	6,33
658,304	6,33
658,757	6,21
659,209	6,17
659,662	6,18
660,114	6,11
660,567	6,03
661,019	5,95
661,471	5,95
661,923	5,86
662,375	5,87
662,826	5,76
663,278	5,75
663,73	5,76
664,181	5,68
664,632	5,66
665,084	5,65
665,535	5,57
665,986	5,58
666,437	5,53
666,888	5,46
667,338	5,57
667,789	5,4
668,24	5,53
668,69	5,5
669,14	5,43
669,591	5,55
670,041	5,51
670,491	5,52
670,941	5,55
671,391	5,58
671,84	5,53
672,29	5,51
672,74	5,63
673,189	5,57
673,638	5,65
674,088	5,74
674,537	5,85
674,986	5,85
675,435	5,85
675,883	5,92
676,332	5,95
676,781	6,07
677,229	6,06
677,678	6,17
678,126	6,22
678,574	6,27
679,022	6,34
679,47	6,35
679,918	6,49
680,366	6,63
680,814	6,63
681,261	6,8
681,709	6,91
682,156	6,96
682,604	7,08
683,051	7,14
683,498	7,13
683,945	7,32
684,392	7,45
684,839	7,55
685,286	7,65
685,732	7,82
686,179	7,85
686,625	7,95
687,071	8,13
687,518	8,27
687,964	8,42
688,41	8,5
688,856	8,8
689,301	9
689,747	9,11
690,193	9,35
690,638	9,56
691,084	9,73
691,529	9,94
691,974	10,31
692,419	10,62
692,864	11,1
693,309	11,27
693,754	11,59
694,199	11,98
694,643	12,34
695,088	12,87
695,532	13,12
695,977	13,36
696,421	13,84
696,865	14,29
697,309	14,85
697,753	15,22
698,197	15,6
698,64	16,05
699,084	16,53
699,527	16,92
699,971	17,48
700,414	17,95
700,857	18,24
701,3	18,78
701,743	19,15
702,186	19,69
702,629	20,06
703,072	20,6
703,515	21,18
703,957	21,53
704,399	21,99
704,842	22,5
705,284	22,94
705,726	23,51
706,168	23,8
706,61	24,08
707,052	24,48
707,494	25,19
707,935	25,66
708,377	25,86
708,818	26,48
709,26	26,88
709,701	27,24
710,142	27,97
710,583	28,21
711,024	28,52
711,465	28,96
711,905	29,56
712,346	30,07
712,787	30,54
713,227	30,82
713,667	31,36
714,108	31,86
714,548	31,96
714,988	32,68
715,428	32,93
715,868	33,52
716,307	34,03
716,747	34,47
717,186	34,91
717,626	35,51
718,065	35,84
718,504	36,42
718,944	36,64
719,383	37,13
719,822	37,34
720,261	37,87
720,699	38,56
721,138	38,92
721,576	39,17
722,015	39,83
722,453	40,39
722,892	40,45
723,33	41
723,768	41,53
724,206	41,69
724,644	42,58
725,081	42,43
725,519	43,1
725,957	43,59
726,394	43,97
726,832	44,24
727,269	44,47
727,706	44,93
728,143	45,02
728,58	45,45
729,017	46,07
729,454	46,52
729,89	46,84
730,327	46,77
730,764	47,23
731,2	47,67
731,636	47,93
732,072	48,34
732,509	48,43
732,945	48,78
733,38	49,35
733,816	49,38
734,252	49,55
734,688	49,81
735,123	50,18
735,559	50,63
735,994	50,61
736,429	51,02
736,864	51,13
737,299	51,29
737,734	51,32
738,169	51,56
738,604	51,87
739,038	51,94
739,473	52,1
739,907	52,73
740,342	52,7
740,776	53,12
741,21	53,1
741,644	53,29
742,078	53,45
742,512	53,47
742,946	53,48
743,379	53,8
743,813	53,98
744,246	54,06
744,68	53,96
745,113	54,46
745,546	54,54
745,979	54,46
746,412	54,05
746,845	54,66
747,278	54,51
747,711	54,72
748,143	54,86
748,576	55,16
749,008	55,24
749,441	54,81
749,873	55,05
750,305	55,38
750,737	55,26
751,169	54,93
751,601	55,18
752,032	55,12
752,464	54,96
752,896	55,17
753,327	55,21
753,758	55,33
754,19	55,63
754,621	55,47
755,052	55,36
755,483	55,69
755,914	55,33
756,344	55,23
756,775	55,84
757,206	55,56
757,636	55,34
758,066	55,4
758,497	55,59
758,927	55,66
759,357	55,76
759,787	55,87
760,217	55,9
760,647	55,21
761,076	55,47
761,506	55,53
761,935	55,55
762,365	55,62
762,794	55,32
763,223	55,64
763,653	55,87
764,082	55,68
764,51	55,3
764,939	55,41
765,368	55,51
765,797	55,46
766,225	55,55
766,654	55,53
767,082	55,57
767,51	55,52
767,938	55,78
768,367	55,58
768,795	55,69
769,222	55,46
769,65	55,52
770,078	55,49
770,505	55,85
770,933	55,55
771,36	55,41
771,788	55,72
772,215	55,36
772,642	55,6
773,069	55,61
773,496	55,22
773,923	55,54
774,349	55,5
774,776	55,78
775,203	55,6
775,629	55,51
776,055	55,28
776,482	55,55
776,908	55,3
777,334	55,6
777,76	55,64
778,186	55,25
778,611	55,2
779,037	55,33
779,463	55,19
779,888	55,41
780,314	55,45
780,739	55,46
781,164	55,4
781,589	55,45
782,014	55,4
782,439	55,61
782,864	55,49
783,289	55,14
783,713	55,64
784,138	55,47
784,562	55,19
784,987	55,23
785,411	55,63
785,835	55,44
786,259	55,32
786,683	55,42
787,107	55,34
787,531	55,18
787,954	55,22
788,378	55,57
788,802	55,39
789,225	55,26
789,648	55,63
790,071	55,61
790,495	55,47
790,918	55,22
791,34	55,54
791,763	55,43
792,186	55,15
792,609	55,57
793,031	55,18
793,454	55,44
793,876	55,61
794,298	55,39
794,721	55,56
795,143	55,62
795,565	55,65
795,986	55,4
796,408	55,23
796,83	55,22
797,252	55,63
797,673	55,5
798,094	55,52
798,516	55,66
798,937	55,45
799,358	55,63
799,779	55,66
800,2	55,77
800,621	55,68
801,042	55,59
801,462	55,57
801,883	55,67
802,303	55,81
802,724	55,47
803,144	55,85
803,564	55,7
803,984	55,6
804,404	55,53
804,824	55,55
805,244	55,67
805,664	55,44
806,084	55,56
806,503	55,71
806,923	55,41
807,342	55,76
807,761	55,62
808,18	55,71
808,599	55,68
809,018	55,65
809,437	55,61
809,856	55,52
810,275	55,93
810,693	55,65
811,112	55,88
811,53	55,48
811,949	55,77
812,367	55,62
812,785	55,77
813,203	55,8
813,621	55,59
814,039	55,28
814,457	55,82
814,874	55,65
815,292	55,7
815,709	55,69
816,127	55,75
816,544	55,35
816,961	55,76
817,378	55,8
817,795	55,72
818,212	55,69
818,629	55,61
819,046	55,82
819,462	55,79
819,879	55,92
820,295	55,67
820,712	55,68
821,128	55,79
821,544	55,74
821,96	55,72
822,376	55,6
822,792	55,74
823,208	55,69
823,624	55,73
824,039	55,67
824,455	55,83
824,87	55,7
825,286	55,85
825,701	55,75
826,116	56,05
826,531	55,54
826,946	55,91
827,361	55,82
827,776	55,77
828,19	55,95
828,605	55,89
829,02	55,57
829,434	55,73
829,848	55,81
830,263	55,66
830,677	55,8
831,091	55,8
831,505	55,55
831,919	55,94
832,332	55,52
832,746	55,9
833,16	55,54
833,573	55,82
833,987	55,87
834,4	55,66
834,813	55,91
835,226	55,51
835,639	55,84
836,052	55,81
836,465	55,85
836,878	55,8
837,29	55,79
837,703	56,05
838,116	55,8
838,528	56,1
838,94	55,85
839,352	55,59
839,765	55,76
840,177	55,77
840,589	55,8
841	56,17
841,412	55,68
841,824	55,85
842,235	55,89
842,647	55,56
843,058	55,89
843,47	56
843,881	56,03
844,292	56,41
844,703	55,64
845,114	55,96
845,525	55,97
845,935	56,1
846,346	55,87
846,757	55,9
847,167	55,98
847,577	55,93
847,988	56
848,398	55,89
848,808	55,9
849,218	56,02
849,628	55,68
850,038	56,05
850,448	56
850,857	55,99
851,267	56,08
851,676	55,98
852,086	56,18
852,495	56,04
852,904	55,9
853,313	55,79
853,722	56,09
854,131	56,16
854,54	55,83
854,949	55,98
855,357	56,33
855,766	55,78
856,174	55,97
856,583	56,15
856,991	55,7
857,399	55,88
857,807	56,01
858,215	56,36
858,623	56,06
859,031	56,22
859,439	55,72
859,846	56,11
860,254	56,21
860,661	56,37
861,069	55,72
861,476	56,09
861,883	55,97
862,29	56,15
862,697	55,95
863,104	56
863,511	56,29
863,918	56,24
864,325	55,7
864,731	56,19
865,138	56,36
865,544	55,85
865,95	56,45
866,357	55,98
866,763	56,38
867,169	56,29
867,575	56,32
867,98	56,32
868,386	56,45
868,792	56,53
869,197	56,58
869,603	55,9
870,008	56,14
870,414	56,1
870,819	56,01
871,224	56,26
871,629	55,76
872,034	56,07
872,439	56,14
872,844	55,89
873,248	56,24
873,653	55,8
874,057	56,08
874,462	56,16
874,866	56,57
875,27	56,3
875,674	56,01
876,078	56,32
876,482	55,83
876,886	56,18
877,29	56,05
877,694	55,97
878,097	56,21
878,501	56,13
878,904	56,04
879,308	56,24
879,711	56,05
880,114	56,04
880,517	56,21
880,92	55,75
881,323	56,21
881,726	56,62
882,128	55,97
882,531	56,45
882,934	56,51
883,336	56,26
883,738	56,29
884,141	55,67
884,543	55,71
884,945	55,89
885,347	56,05
885,749	56,33
886,151	56,09
886,552	56,29
886,954	56,28
887,355	56,21
887,757	56,54
888,158	56,1
888,56	56,02
888,961	56,41
889,362	56,04
889,763	55,86
890,164	56,15
890,565	56,54
890,965	56,26
891,366	56,53
891,767	56,47
892,167	56,58
892,567	56,12
892,968	56,25
893,368	56,34
893,768	56,21
894,168	56,18
894,568	56,16
894,968	56,39
895,368	56,19
895,767	56,35
896,167	56,29
896,566	56,2
896,966	56,29
897,365	56,25
897,764	56,59
898,164	56,01
898,563	56,27
898,962	56,64
899,361	56,3
899,759	56,2
900,158	56,39
900,557	56,56
900,955	56,38
901,354	56,11
901,752	56,52
902,15	56,48
902,548	56,49
902,947	56,4
903,345	56,48
903,742	56,41
904,14	56,71
904,538	56,84
904,936	56,62
905,333	56,26
905,731	56,24
906,128	56,45
906,525	56,7
906,923	56,49
907,32	56,79
907,717	56,29
908,114	56,53
908,511	56,44
908,907	56,58
909,304	56,53
909,701	56,89
910,097	56,31
910,494	56,49
910,89	56,79
911,286	56,2
911,682	56,57
912,078	56,53
912,474	56,51
912,87	56,49
913,266	56,36
913,662	56,73
914,058	56,27
914,453	56,47
914,849	56,52
915,244	56,36
915,639	56,75
916,034	56,31
916,43	56,41
916,825	56,51
917,22	56,35
917,614	56,7
918,009	56,18
918,404	56,41
918,798	56,99
919,193	56,54
919,587	56,37
919,982	56,73
920,376	55,95
920,77	56,65
921,164	56,67
921,558	56,57
921,952	56,1
922,346	56,71
922,74	56,43
923,133	56,14
923,527	56
923,92	56,88
924,314	56,4
924,707	56,17
925,1	56,64
925,493	56,31
925,886	56,19
926,279	56,73
926,672	56,85
927,065	56,04
927,457	55,74
927,85	56,29
928,243	55,54
928,635	56,41
929,027	55,99
929,42	55,8
929,812	56,48
930,204	56,06
930,596	56,41
930,988	56,1
931,379	55,63
931,771	56,47
932,163	55,8
932,554	55,79
932,946	55,71
933,337	56,01
933,729	55,98
934,12	56,04
934,511	55,98
934,902	56,16
935,293	55,87
935,684	55,81
936,075	55,54
936,465	55,78
936,856	55,79
937,246	55,63
937,637	55,91
938,027	56,03
938,417	55,74
938,808	55,64
939,198	55,34
939,588	56,07
939,978	55,65
940,368	55,77
940,757	55,69
941,147	55,23
941,537	55,65
941,926	55,19
942,315	55,28
942,705	55,15
943,094	55,84
943,483	56,37
943,872	55,71
944,261	55,55
944,65	56,15
945,039	55,56
945,428	55,45
945,816	55,02
946,205	55,12
946,593	54,36
946,982	55,35
947,37	55,23
947,758	54,47
948,146	55,57
948,534	55,52
948,922	55,14
949,31	53,97
949,698	54,55
950,086	54,05
950,473	54,03
950,861	55,04
951,248	54,65
951,636	54,88
952,023	54,73
952,41	54,51
952,797	54,74
953,184	55,11
953,571	55,03
953,958	54,35
954,345	54,69
954,731	53,77
955,118	54,28
955,505	53,72
955,891	54,36
956,277	53,83
956,664	54,01
957,05	54,33
957,436	54,53
957,822	54,09
958,208	53,11
958,594	53,76
958,979	53,9
959,365	53,6
959,751	53,99
960,136	53,75
960,522	54,06
960,907	54,19
961,292	54,11
961,677	53,81
962,062	53,67
962,447	53,81
962,832	53,72
963,217	53,66
963,602	54,14
963,986	53,63
964,371	53,57
964,756	53,91
965,14	53,11
965,524	54,42
965,908	53,57
966,293	53,47
966,677	53,46
967,061	53,92
967,445	53,38
967,828	53,55
968,212	53,66
968,596	54,08
968,979	53,72
969,363	53,62
969,746	53,85
970,129	53,91
970,513	53,33
970,896	54,04
971,279	53,81
971,662	53,75
972,045	53,55
972,428	54,29
972,81	53,42
973,193	53,9
973,575	54,13
973,958	53,71
974,34	53,04
974,723	54,27
975,105	54,24
975,487	53,72
975,869	53,91
976,251	53,27
976,633	53,34
977,015	53,66
977,396	54,08
977,778	53,93
978,16	53,65
978,541	53,64
978,922	54,03
979,304	53,95
979,685	54,38
980,066	54,48
980,447	54,13
980,828	53,83
981,209	54,06
981,59	53,93
981,97	53,95
982,351	53,94
982,732	54,35
983,112	54,01
983,493	53,77
983,873	54,38
984,253	54,22
984,633	54,4
985,013	53,94
985,393	53,43
985,773	53,63
986,153	53,94
986,533	54,41
986,912	54,7
987,292	53,8
987,671	53,87
988,051	53,93
988,43	54,35
988,809	54,04
989,188	53,82
989,567	54,3
989,946	54,38
990,325	54,2
990,704	54,45
991,083	54,63
991,461	53,59
991,84	54,1
992,218	53,89
992,597	54,24
992,975	54,18
993,353	54,33
993,732	53,66
994,11	54,04
994,488	54,28
994,866	54,76
995,243	53,88
995,621	54,65
995,999	54,38
996,376	54,11
996,754	54,71
997,131	54,24
997,509	54,33
997,886	54,3
998,263	54,11
998,64	54,42
999,017	54,26
999,394	54,25
999,771	54,35
1000,148	53,91
1000,524	54,61
1000,901	54,4
1001,277	54,24
1001,654	54,68
1002,03	54,79
1002,406	55,06
1002,783	55,17
1003,159	54,62
1003,535	54,69
1003,911	54,46
1004,286	54,74
1004,662	54,42
1005,038	54,58
1005,414	54,82
1005,789	55,16
1006,164	54,63
1006,54	54,74
1006,915	54,94
1007,29	54,81
1007,665	54,67
1008,04	55,46
1008,415	55,51
1008,79	54,91
1009,165	54,91
1009,54	54,5
1009,914	54,41
1010,289	54,84
1010,663	54,82
1011,038	55,66
1011,412	54,87
1011,786	54,87
1012,16	55,9
1012,535	55,7
1012,909	55,5
1013,282	55,95
1013,656	55,52
1014,03	55,57
1014,404	55,86
1014,777	55,08
1015,151	54,99
1015,524	55
1015,897	55,46
1016,271	55,21
1016,644	55,4
1017,017	54,86
1017,39	55,46
1017,763	55,67
1018,136	55,65
1018,508	55,84
1018,881	55,93
1019,254	55,14
1019,626	54,85
1019,999	55,62
1020,371	55,6
1020,743	55,26
1021,116	55,68
1021,488	55,58
1021,86	56,07
1022,232	55,98
1022,604	55,25
1022,975	55,42
1023,347	56,03
1023,719	56,56
1024,09	56,55
1024,462	55,74
1024,833	56,11
1025,204	55,84
1025,576	55,63
1025,947	55,89
1026,318	56,69
1026,689	56,39
1027,06	56,23
1027,431	56,1
1027,801	54,66
1028,172	56,29
1028,543	55,67
1028,913	56,19
1029,284	56,72
1029,654	56,1
1030,024	56,34
1030,394	55,89
1030,764	56,02
1031,135	55,68
1031,504	55,87
1031,874	56,26
1032,244	55,66
1032,614	56,06
1032,983	56,44
1033,353	55,7
1033,722	56,96
1034,092	56,76
1034,461	55,71
1034,83	56,07
1035,2	55,67
1035,569	56,38
1035,938	55,2
1036,307	56,97
1036,675	56,67
1037,044	56,32
1037,413	56,79
1037,781	56,4
1038,15	57,17
1038,518	56,61
1038,887	56,15
1039,255	57,06
1039,623	56,87
1039,991	56,23
1040,359	56,72
1040,727	55,74
1041,095	56,34
1041,463	56,48
1041,831	56,47
1042,198	56,57
1042,566	56,61
1042,933	57,42
1043,301	56,14
1043,668	56,88
1044,035	56,6
1044,402	57,65
1044,77	57,37
1045,137	56,38
1045,503	57,04
1045,87	57,9
1046,237	56,89
1046,604	57,64
1046,97	56,54
1047,337	56,27
1047,703	57,28
1048,07	56,67
1048,436	57,1
1048,802	56,52
1049,168	55,68
1049,534	57
1049,9	56,82
1050,266	56,55
1050,632	56,65
1050,998	56,93
1051,364	57,47
1051,729	56,39
1052,095	56,72
1052,46	57,23
1052,825	57,19
1053,191	57,93
1053,556	56,81
1053,921	56,9
1054,286	56,24
1054,651	56,44
1055,016	57,36
1055,381	56,69
1055,745	58,01
1056,11	57,22
1056,475	56,65
1056,839	57,01
1057,203	56,21
1057,568	56,73
1057,932	57,75
1058,296	56,64
1058,66	57,3
1059,024	55,8
1059,388	56,72
1059,752	56,62
1060,116	57,01
1060,48	58,05
1060,843	55,95
1061,207	57,28
1061,57	56,65
1061,934	56,69
1062,297	56,89
1062,66	57,05
1063,023	57,02
1063,386	58,13
1063,749	56,75
1064,112	56,55
1064,475	56,17
1064,838	56,35
1065,201	56,48
1065,563	57,07
1065,926	57,54
1066,288	58,23
1066,651	58,2
1067,013	57,79
1067,375	57,15
1067,737	56,75
1068,099	57,1
1068,461	57,26
1068,823	55,18
1069,185	56,8
1069,547	57,1
1069,909	56,88
1070,27	56,94
1070,632	56,2
1070,993	57,25
1071,355	55,76
1071,716	56,73
1072,077	58,29
1072,438	56,45
1072,799	56,68
1073,16	57,83
1073,521	57,8
1073,882	59,13
1074,243	56,4
1074,603	57,18
1074,964	57,74
1075,325	56,85
1075,685	57,47
1076,045	58,07
1076,406	58,22
1076,766	56,59
1077,126	56,16
1077,486	57,49
1077,846	56,45
1078,206	55,79
1078,566	56,82
1078,925	56,99
1079,285	57,37
1079,645	57,24
1080,004	58,68
1080,364	56,62
1080,723	58,49
1081,082	57,96
1081,442	57
1081,801	57,27
1082,16	56,72
1082,519	56,98
1082,878	57,45
1083,237	56,25
1083,595	56,56
1083,954	56,44
1084,313	56,1
1084,671	56,88
1085,03	56,77
1085,388	56,02
1085,746	58,46
1086,104	57,92
1086,463	58,4
1086,821	58,45
1087,179	57,84
1087,537	59,56
1087,894	55,53
1088,252	56,91
1088,61	55,64
1088,967	55,19
1089,325	58,8
1089,682	56,8
1090,04	57,63
1090,397	58,13
1090,754	58,12
1091,111	58,27
1091,469	58,2
1091,826	58,74
1092,182	57,1
1092,539	56,62
1092,896	55,99
1093,253	56,6
1093,609	57,13
1093,966	56,47
1094,322	57,97
1094,679	56,8
1095,035	58,76
1095,391	55,85
1095,748	57,99
1096,104	57,03
1096,46	57,22
1096,816	57,5
1097,171	56,28
1097,527	56,28
1097,883	56,98
1098,239	59,77
1098,594	57,02
1098,95	55,9
1099,305	57,07
1099,66	59,88
1100,016	57
1100,371	56,59
1100,726	57,76
1101,081	57,37
1101,436	55,76
1101,791	58,15
1102,146	58,92
1102,5	56,3
1102,855	55,23
1103,21	56,28
1103,564	58,26
1103,918	56,74
1104,273	56,7
1104,627	56,83
1104,981	55,36
1105,335	57,11
1105,69	56,98
1106,043	57,67
1106,397	54,68
1106,751	56,46
1107,105	57,85
1107,459	60,78
1107,812	56,18
1108,166	58,44
1108,519	54,84
1108,873	57,23
1109,226	58,97
1109,579	57,29
1109,932	57,49
1110,285	54,75
1110,638	57,98
1110,991	58,78
1111,344	56,73
1111,697	56,02
1112,05	56,6
1112,402	57,95
1112,755	58,58
1113,107	54,77
1113,46	55,66
1113,812	57,17
1114,164	60,58
1114,517	57,71
1114,869	61,79
1115,221	69,33
1115,573	63,04
1115,924	67,2
