Data from Relative__3__12-29-11-376.txt Node

Date: Fri Feb 02 12:29:11 CET 2024
User: diatiterra
Spectrometer: HDX00911
Trigger mode: 0
Integration Time (sec): 6,000000E-3
Scans to average: 2
Nonlinearity correction enabled: false
Boxcar width: 0
Storing dark spectrum: false
XAxis mode: Wavelengths
Number of Pixels in Spectrum: 2068
>>>>>Begin Spectral Data<<<<<
194,468	68,25
195,025	60
195,581	54,72
196,138	56,82
196,694	63,82
197,251	57,38
197,807	54,98
198,363	54,06
198,919	50
199,474	45,69
200,03	47,6
200,586	52,37
201,141	50,16
201,696	50,62
202,251	50,16
202,806	46,69
203,361	47,5
203,916	44,38
204,471	50,48
205,025	44,38
205,58	46,53
206,134	51,83
206,688	52,56
207,242	39,81
207,796	51,69
208,35	47,42
208,904	46,48
209,457	48,38
210,011	50,32
210,564	46,6
211,117	52,04
211,67	47,31
212,223	55,48
212,776	50,16
213,329	47,27
213,881	57,72
214,434	48,2
214,986	48,88
215,538	54,07
216,09	42,27
216,642	53,64
217,194	50
217,746	50,99
218,297	54,95
218,849	51,15
219,4	51,79
219,951	52,55
220,502	53,2
221,053	57,5
221,604	47,25
222,155	55,16
222,705	51,58
223,256	54,33
223,806	52,44
224,356	58,6
224,906	45,25
225,456	47,18
226,006	41,14
226,556	53,85
227,106	47,99
227,655	48,15
228,204	46,45
228,754	46,69
229,303	54,67
229,852	52,16
230,401	52,37
230,949	48,29
231,498	52,6
232,047	45,95
232,595	47,52
233,143	50,6
233,691	44,87
234,239	44,07
234,787	53,26
235,335	55,23
235,883	43,25
236,43	50,33
236,978	53,62
237,525	48,43
238,072	44,89
238,619	41,56
239,166	44,34
239,713	60,42
240,26	54,97
240,806	49,2
241,353	58,09
241,899	48,4
242,445	45,55
242,991	56,82
243,537	52,28
244,083	49,52
244,629	46,25
245,174	50
245,72	53,75
246,265	51,01
246,81	41,91
247,355	49,16
247,9	50,49
248,445	49,68
248,99	50,33
249,534	52,4
250,079	47,04
250,623	53,54
251,168	51,36
251,712	54,22
252,256	48,66
252,8	44,69
253,343	49,84
253,887	51,74
254,43	53,97
254,974	52,63
255,517	52,67
256,06	51,33
256,603	53,72
257,146	46,41
257,689	53,22
258,232	62,3
258,774	54,11
259,317	49,03
259,859	48
260,401	47,04
260,943	53,24
261,485	54,8
262,027	46,77
262,569	49,5
263,11	42,53
263,652	52,9
264,193	51,54
264,734	48,25
265,275	44,64
265,816	48,99
266,357	47,95
266,898	51,01
267,438	50,87
267,979	54,55
268,519	47,73
269,059	43,6
269,6	53,67
270,14	58,02
270,68	55,28
271,219	52,35
271,759	53,49
272,298	50,48
272,838	56,59
273,377	53,72
273,916	53,92
274,455	57,49
274,994	59,26
275,533	55,12
276,072	52,96
276,61	56,16
277,149	55,83
277,687	50,5
278,225	52,96
278,763	50,87
279,301	48,92
279,839	53
280,377	56,06
280,914	59,01
281,452	50
281,989	55,51
282,526	46,81
283,064	60,93
283,601	52,17
284,137	49,66
284,674	50
285,211	50,15
285,747	48,8
286,284	51,03
286,82	52,22
287,356	52,31
287,892	52,36
288,428	46,48
288,964	49,82
289,5	47,22
290,035	51,69
290,571	51,37
291,106	46,82
291,641	52,38
292,176	50,17
292,711	61,74
293,246	46,82
293,781	47,7
294,315	48,28
294,85	47,21
295,384	59,14
295,918	47,64
296,453	52,43
296,987	42,33
297,52	53,28
298,054	48,76
298,588	48,63
299,121	51,76
299,655	48,86
300,188	50,71
300,721	51,18
301,254	56,18
301,787	46,18
302,32	53,26
302,853	56,76
303,385	55,76
303,918	48,95
304,45	59,16
304,982	46,81
305,514	47,15
306,046	46,15
306,578	51,24
307,11	52,03
307,641	48,98
308,173	44,53
308,704	50,17
309,236	38,91
309,767	45,21
310,298	54,6
310,829	45,85
311,359	47,39
311,89	45,52
312,421	42,95
312,951	46,06
313,481	56,18
314,012	52,73
314,542	61,38
315,072	49,71
315,601	50
316,131	55,33
316,661	46,64
317,19	46,71
317,72	43,14
318,249	47,57
318,778	57,24
319,307	50,78
319,836	56,52
320,365	51,65
320,893	47
321,422	49
321,95	53,45
322,479	46,34
323,007	48,61
323,535	46,93
324,063	49,84
324,591	48,6
325,118	52,41
325,646	50,36
326,173	44,48
326,701	54,93
327,228	50,66
327,755	46,56
328,282	49,51
328,809	49,65
329,336	53,12
329,862	49,84
330,389	47,7
330,915	52,68
331,441	52,76
331,968	43,62
332,494	42,95
333,02	46,94
333,545	52,29
334,071	46,54
334,597	45,19
335,122	41,46
335,648	51,3
336,173	49,51
336,698	41,27
337,223	46,13
337,748	47,44
338,272	44,69
338,797	47,71
339,322	40,37
339,846	40,36
340,37	38,38
340,894	36,16
341,419	46,82
341,942	40,45
342,466	46,32
342,99	42,68
343,514	42,5
344,037	36,24
344,56	41,52
345,084	36,03
345,607	42,11
346,13	41,11
346,653	39,94
347,175	35,44
347,698	39,22
348,221	38,55
348,743	36,02
349,265	40,27
349,787	39,72
350,309	41,57
350,831	35,15
351,353	33,67
351,875	39,74
352,397	39,49
352,918	33,49
353,439	35,8
353,961	32,59
354,482	38,78
355,003	33,67
355,524	31,46
356,044	33,41
356,565	43,03
357,086	34,08
357,606	36,26
358,126	35,21
358,646	38,1
359,167	31,53
359,687	32,63
360,206	35,68
360,726	31
361,246	30,17
361,765	34,32
362,285	32,77
362,804	34,94
363,323	28,04
363,842	30,79
364,361	32,1
364,88	30,74
365,398	31,21
365,917	31,36
366,435	28,84
366,954	27,92
367,472	26,37
367,99	29,26
368,508	29,22
369,026	27,68
369,544	29,4
370,061	27,22
370,579	22,2
371,096	27,98
371,613	27,27
372,131	28,26
372,648	28,24
373,165	26,88
373,681	27,74
374,198	24,69
374,715	25,61
375,231	27,56
375,747	26,58
376,264	21,22
376,78	25,37
377,296	22,98
377,812	19,58
378,327	24,89
378,843	25,99
379,359	19,52
379,874	17,77
380,389	22,91
380,905	24,83
381,42	22,28
381,935	22,33
382,449	21,95
382,964	21,49
383,479	19,1
383,993	19,22
384,508	18,47
385,022	16,87
385,536	19,69
386,05	18,1
386,564	19,98
387,078	18,99
387,592	19,34
388,105	18,61
388,619	17,18
389,132	16,94
389,645	16,46
390,158	17,1
390,671	18,38
391,184	18,95
391,697	18,23
392,21	17
392,722	18,2
393,235	17,82
393,747	17,72
394,259	16,72
394,771	16,68
395,283	15,49
395,795	16,41
396,307	15,13
396,818	13,81
397,33	15,2
397,841	14,85
398,353	14,46
398,864	13,67
399,375	14,11
399,886	13,06
400,397	13,42
400,907	13,27
401,418	13,07
401,928	13,04
402,439	13,48
402,949	12,65
403,459	13,48
403,969	11,9
404,479	12,03
404,989	11,53
405,498	11,67
406,008	11,27
406,517	12,16
407,027	10,9
407,536	9,85
408,045	10,83
408,554	9,62
409,063	9,51
409,572	9,97
410,08	9,23
410,589	8,78
411,097	8,32
411,606	8,7
412,114	8,27
412,622	7,84
413,13	7,89
413,638	8,13
414,145	7
414,653	7,46
415,16	6,91
415,668	7,54
416,175	7,21
416,682	6,5
417,189	6,58
417,696	7,31
418,203	6,52
418,71	6,66
419,216	6,33
419,723	6,2
420,229	5,71
420,735	6,42
421,242	6,42
421,748	6,04
422,254	5,77
422,759	6,27
423,265	6,05
423,771	6,09
424,276	5,78
424,781	5,95
425,287	5,45
425,792	5,72
426,297	5,51
426,802	5,89
427,306	5,57
427,811	5,81
428,316	5,55
428,82	5,48
429,324	5,72
429,829	5,26
430,333	5,97
430,837	5,52
431,34	5,6
431,844	5,82
432,348	5,55
432,851	5,17
433,355	5,3
433,858	5,18
434,361	5,42
434,864	5,34
435,367	5,25
435,87	5,43
436,373	5,13
436,876	4,94
437,378	5,3
437,88	4,99
438,383	5,26
438,885	5,16
439,387	5,07
439,889	5,08
440,391	5,1
440,892	5,51
441,394	5,03
441,896	4,74
442,397	5,12
442,898	5,03
443,399	5,14
443,9	4,97
444,401	5,01
444,902	5,06
445,403	4,96
445,903	5,04
446,404	5,09
446,904	4,87
447,405	4,97
447,905	4,98
448,405	4,79
448,905	4,86
449,404	5,19
449,904	4,88
450,404	4,99
450,903	4,72
451,403	5,18
451,902	4,99
452,401	5,08
452,9	5,17
453,399	5,22
453,898	4,96
454,396	5,1
454,895	5,08
455,393	5,07
455,892	4,85
456,39	5,1
456,888	5,32
457,386	5,14
457,884	4,84
458,382	5,2
458,879	4,86
459,377	5,18
459,874	4,76
460,372	5,01
460,869	4,97
461,366	5,13
461,863	4,91
462,36	5,12
462,857	4,95
463,353	4,8
463,85	5,22
464,346	5,13
464,843	5,02
465,339	4,86
465,835	4,85
466,331	5,02
466,827	5
467,323	5,28
467,818	4,89
468,314	4,97
468,809	5,01
469,305	5,05
469,8	5,16
470,295	4,79
470,79	4,97
471,285	4,96
471,78	4,98
472,274	5,32
472,769	5,05
473,263	5,04
473,758	5,01
474,252	5,2
474,746	5,07
475,24	4,9
475,734	4,88
476,228	4,76
476,721	4,99
477,215	5,01
477,708	4,91
478,202	4,92
478,695	4,96
479,188	4,97
479,681	4,96
480,174	5,01
480,667	5,05
481,159	4,76
481,652	5,04
482,144	4,85
482,637	5,12
483,129	4,93
483,621	5,07
484,113	4,9
484,605	5,18
485,097	4,93
485,588	4,92
486,08	5,26
486,571	4,76
487,063	4,98
487,554	5,07
488,045	4,91
488,536	5,04
489,027	5,08
489,518	5,09
490,008	5,13
490,499	5,04
490,989	5,31
491,48	5,33
491,97	4,95
492,46	4,99
492,95	5,06
493,44	5,16
493,93	5,38
494,419	5,23
494,909	5,14
495,398	5,38
495,888	5,21
496,377	4,99
496,866	5,14
497,355	5,39
497,844	5,35
498,333	5,34
498,821	5,18
499,31	5,21
499,798	5,26
500,287	5,31
500,775	5,32
501,263	5,48
501,751	5,37
502,239	5,5
502,727	5,41
503,215	5,44
503,702	5,34
504,19	5,39
504,677	5,48
505,164	5,54
505,651	5,58
506,139	5,5
506,625	5,45
507,112	5,53
507,599	5,75
508,086	5,54
508,572	5,88
509,058	5,81
509,545	5,89
510,031	5,84
510,517	5,87
511,003	5,97
511,489	6,09
511,974	6,2
512,46	6,32
512,946	6,36
513,431	6,31
513,916	6,26
514,401	6,28
514,887	6,58
515,371	6,61
515,856	6,72
516,341	6,97
516,826	6,89
517,31	7,11
517,795	7,07
518,279	7,16
518,763	7,26
519,247	7,36
519,731	7,4
520,215	7,43
520,699	7,46
521,182	8
521,666	7,84
522,149	8,04
522,633	8,49
523,116	8,16
523,599	8,62
524,082	8,67
524,565	8,56
525,048	8,82
525,53	8,93
526,013	9,11
526,495	9,19
526,978	9,4
527,46	9,56
527,942	9,48
528,424	9,6
528,906	9,85
529,388	10,07
529,87	10,09
530,351	9,95
530,833	10,12
531,314	10,2
531,795	10,49
532,277	10,53
532,758	10,55
533,238	10,57
533,719	10,66
534,2	10,72
534,681	10,8
535,161	11,06
535,642	10,91
536,122	10,72
536,602	11,12
537,082	11,17
537,562	11,16
538,042	11,18
538,522	11,13
539,001	11,44
539,481	11,27
539,96	11,14
540,44	11,38
540,919	11,58
541,398	11,22
541,877	11,51
542,356	11,42
542,835	11,41
543,313	11,57
543,792	11,66
544,27	11,44
544,749	11,5
545,227	11,56
545,705	11,66
546,183	11,64
546,661	11,84
547,139	11,72
547,616	11,91
548,094	11,77
548,571	11,77
549,049	11,76
549,526	11,81
550,003	11,81
550,48	12,12
550,957	11,91
551,434	11,97
551,911	11,98
552,387	11,94
552,864	11,91
553,34	11,82
553,817	11,91
554,293	11,97
554,769	11,97
555,245	12,03
555,721	11,79
556,197	11,94
556,672	11,96
557,148	11,92
557,623	11,87
558,099	11,82
558,574	11,83
559,049	11,91
559,524	11,83
559,999	11,71
560,474	11,41
560,948	11,67
561,423	11,53
561,897	11,46
562,372	11,57
562,846	11,38
563,32	11,39
563,794	11,23
564,268	11,33
564,742	11,07
565,216	11,24
565,69	11,08
566,163	11,07
566,636	10,85
567,11	10,83
567,583	10,55
568,056	10,56
568,529	10,62
569,002	10,58
569,475	10,27
569,947	10,27
570,42	10,33
570,892	10,2
571,365	10,05
571,837	9,86
572,309	9,69
572,781	9,53
573,253	9,64
573,725	9,52
574,197	9,52
574,668	9,3
575,14	9,45
575,611	9,3
576,082	9,2
576,554	9,12
577,025	9,06
577,496	8,98
577,967	8,97
578,437	8,89
578,908	8,95
579,379	8,75
579,849	8,62
580,319	8,61
580,79	8,57
581,26	8,48
581,73	8,38
582,2	8,43
582,669	8,46
583,139	8,4
583,609	8,41
584,078	8,28
584,548	8,19
585,017	8,24
585,486	8,25
585,955	8,16
586,424	8,05
586,893	8,16
587,362	8,04
587,83	7,83
588,299	7,93
588,767	7,92
589,236	8,02
589,704	7,82
590,172	7,84
590,64	7,83
591,108	7,66
591,576	7,78
592,043	7,7
592,511	7,64
592,978	7,72
593,446	7,59
593,913	7,62
594,38	7,78
594,847	7,51
595,314	7,7
595,781	7,47
596,248	7,62
596,715	7,45
597,181	7,46
597,647	7,37
598,114	7,42
598,58	7,58
599,046	7,64
599,512	7,49
599,978	7,52
600,444	7,54
600,91	7,48
601,375	7,49
601,841	7,35
602,306	7,45
602,771	7,38
603,236	7,36
603,702	7,28
604,167	7,25
604,631	7,42
605,096	7,33
605,561	7,4
606,025	7,17
606,49	7,16
606,954	7,21
607,418	7,24
607,882	7
608,347	7,12
608,81	7,08
609,274	7,15
609,738	7,09
610,202	7,12
610,665	6,97
611,128	7,04
611,592	6,92
612,055	6,93
612,518	6,79
612,981	6,99
613,444	6,91
613,907	6,78
614,369	6,8
614,832	6,72
615,294	6,77
615,757	6,67
616,219	6,67
616,681	6,71
617,143	6,56
617,605	6,61
618,067	6,71
618,529	6,56
618,99	6,57
619,452	6,46
619,913	6,55
620,375	6,51
620,836	6,56
621,297	6,51
621,758	6,51
622,219	6,37
622,68	6,36
623,14	6,28
623,601	6,43
624,061	6,36
624,522	6,38
624,982	6,27
625,442	6,3
625,902	6,38
626,362	6,33
626,822	6,33
627,282	6,27
627,742	6,4
628,201	6,28
628,661	6,35
629,12	6,24
629,579	6,2
630,038	6,33
630,497	6,22
630,956	6,27
631,415	6,32
631,874	6,22
632,332	6,2
632,791	6,26
633,249	6,21
633,708	6,21
634,166	6,21
634,624	6,27
635,082	6,2
635,54	6,12
635,998	6,13
636,455	6,04
636,913	5,96
637,37	6,08
637,828	5,99
638,285	5,95
638,742	5,97
639,199	5,94
639,656	5,91
640,113	5,82
640,57	5,86
641,027	5,78
641,483	5,84
641,94	5,72
642,396	5,75
642,852	5,81
643,309	5,76
643,765	5,64
644,221	5,64
644,676	5,62
645,132	5,58
645,588	5,58
646,043	5,57
646,499	5,51
646,954	5,6
647,409	5,47
647,864	5,53
648,319	5,47
648,774	5,41
649,229	5,44
649,684	5,43
650,139	5,52
650,593	5,4
651,047	5,46
651,502	5,4
651,956	5,45
652,41	5,36
652,864	5,47
653,318	5,47
653,772	5,4
654,225	5,42
654,679	5,39
655,133	5,3
655,586	5,41
656,039	5,37
656,492	5,43
656,946	5,27
657,399	5,36
657,851	5,37
658,304	5,22
658,757	5,37
659,209	5,34
659,662	5,34
660,114	5,23
660,567	5,29
661,019	5,34
661,471	5,35
661,923	5,26
662,375	5,28
662,826	5,35
663,278	5,31
663,73	5,4
664,181	5,34
664,632	5,36
665,084	5,3
665,535	5,38
665,986	5,41
666,437	5,46
666,888	5,44
667,338	5,48
667,789	5,51
668,24	5,41
668,69	5,56
669,14	5,48
669,591	5,56
670,041	5,62
670,491	5,67
670,941	5,77
671,391	5,71
671,84	5,8
672,29	5,84
672,74	5,8
673,189	5,93
673,638	5,91
674,088	5,96
674,537	6,01
674,986	6,08
675,435	6,19
675,883	6,24
676,332	6,33
676,781	6,33
677,229	6,38
677,678	6,48
678,126	6,57
678,574	6,67
679,022	6,82
679,47	6,69
679,918	6,86
680,366	6,85
680,814	6,99
681,261	7,04
681,709	7,18
682,156	7,2
682,604	7,25
683,051	7,22
683,498	7,36
683,945	7,44
684,392	7,42
684,839	7,48
685,286	7,55
685,732	7,47
686,179	7,58
686,625	7,53
687,071	7,66
687,518	7,64
687,964	7,64
688,41	7,57
688,856	7,66
689,301	7,58
689,747	7,63
690,193	7,6
690,638	7,81
691,084	7,75
691,529	7,76
691,974	7,92
692,419	8,01
692,864	8,07
693,309	8,25
693,754	8,3
694,199	8,41
694,643	8,67
695,088	8,82
695,532	8,89
695,977	9,11
696,421	9,25
696,865	9,6
697,309	9,85
697,753	10
698,197	10,38
698,64	10,53
699,084	11,03
699,527	11,19
699,971	11,57
700,414	12
700,857	12,2
701,3	12,54
701,743	12,99
702,186	13,16
702,629	13,7
703,072	14,14
703,515	14,65
703,957	14,82
704,399	15,31
704,842	15,7
705,284	16,13
705,726	16,72
706,168	17,2
706,61	17,36
707,052	18
707,494	18,3
707,935	18,78
708,377	19,26
708,818	19,79
709,26	20,18
709,701	20,68
710,142	21,4
710,583	21,66
711,024	21,94
711,465	22,73
711,905	23,24
712,346	23,7
712,787	24,2
713,227	24,72
713,667	25,13
714,108	25,84
714,548	26,21
714,988	27,07
715,428	27,54
715,868	28,24
716,307	28,75
716,747	29,31
717,186	29,94
717,626	30,22
718,065	30,78
718,504	31,68
718,944	32,18
719,383	32,66
719,822	33,28
720,261	34,23
720,699	34,47
721,138	35,2
721,576	35,66
722,015	36,06
722,453	36,84
722,892	37,26
723,33	37,81
723,768	38,47
724,206	39
724,644	39,54
725,081	40,26
725,519	40,29
725,957	41
726,394	41,69
726,832	42,23
727,269	42,81
727,706	43,19
728,143	43,89
728,58	44,29
729,017	44,71
729,454	45,3
729,89	45,83
730,327	46,3
730,764	46,47
731,2	47
731,636	47,48
732,072	47,93
732,509	48,35
732,945	48,47
733,38	49,03
733,816	49,58
734,252	50,06
734,688	50,08
735,123	50,7
735,559	51,11
735,994	51,63
736,429	51,54
736,864	51,79
737,299	52,17
737,734	52,79
738,169	52,83
738,604	53,52
739,038	53,5
739,473	54,04
739,907	54,29
740,342	54,27
740,776	54,55
741,21	54,8
741,644	55,08
742,078	54,97
742,512	55,53
742,946	55,45
743,379	55,93
743,813	55,98
744,246	55,89
744,68	56,34
745,113	56,23
745,546	56,5
745,979	56,66
746,412	56,84
746,845	57,35
747,278	56,85
747,711	57,11
748,143	57,21
748,576	57,27
749,008	57,5
749,441	57,71
749,873	57,76
750,305	57,55
750,737	57,55
751,169	58,05
751,601	58,01
752,032	57,93
752,464	57,99
752,896	58,22
753,327	57,87
753,758	58,09
754,19	58,45
754,621	58,38
755,052	58,45
755,483	58,31
755,914	58,12
756,344	58,69
756,775	58,49
757,206	58,4
757,636	58,69
758,066	58,75
758,497	58,35
758,927	58,86
759,357	58,68
759,787	58,73
760,217	58,74
760,647	58,36
761,076	58,67
761,506	58,61
761,935	58,7
762,365	58,48
762,794	58,84
763,223	58,56
763,653	58,71
764,082	59,1
764,51	58,5
764,939	58,77
765,368	59,09
765,797	58,96
766,225	58,96
766,654	59,06
767,082	58,8
767,51	58,84
767,938	58,73
768,367	58,93
768,795	58,97
769,222	58,83
769,65	58,85
770,078	58,9
770,505	58,72
770,933	58,67
771,36	58,74
771,788	58,99
772,215	58,67
772,642	58,82
773,069	58,77
773,496	58,64
773,923	58,59
774,349	59,02
774,776	58,95
775,203	58,68
775,629	58,66
776,055	59,02
776,482	59,13
776,908	58,81
777,334	58,7
777,76	58,89
778,186	58,91
778,611	58,93
779,037	58,77
779,463	58,56
779,888	59
780,314	58,86
780,739	58,64
781,164	58,65
781,589	58,81
782,014	58,47
782,439	58,65
782,864	58,91
783,289	58,71
783,713	58,85
784,138	58,74
784,562	58,9
784,987	58,74
785,411	58,85
785,835	58,8
786,259	58,56
786,683	58,84
787,107	58,82
787,531	58,95
787,954	58,94
788,378	59,08
788,802	59,07
789,225	58,71
789,648	58,93
790,071	58,92
790,495	59,21
790,918	59,12
791,34	59,16
791,763	58,79
792,186	59,21
792,609	58,97
793,031	59,05
793,454	59,15
793,876	58,86
794,298	58,97
794,721	59,05
795,143	58,89
795,565	58,75
795,986	58,93
796,408	59,07
796,83	58,67
797,252	58,95
797,673	58,87
798,094	59,14
798,516	59
798,937	59,24
799,358	58,92
799,779	58,92
800,2	58,78
800,621	59,17
801,042	59,22
801,462	58,87
801,883	58,74
802,303	58,89
802,724	59,12
803,144	59,15
803,564	59,19
803,984	59,27
804,404	59,12
804,824	59,2
805,244	59,34
805,664	59,32
806,084	58,79
806,503	59,32
806,923	59,02
807,342	58,89
807,761	59,08
808,18	59,54
808,599	59,01
809,018	59
809,437	59,42
809,856	59,24
810,275	58,95
810,693	59,23
811,112	59,11
811,53	59,38
811,949	59,39
812,367	58,91
812,785	59,41
813,203	59
813,621	59,19
814,039	59,16
814,457	59,3
814,874	59,04
815,292	59,36
815,709	59,15
816,127	59
816,544	59,29
816,961	59,27
817,378	59,02
817,795	59,1
818,212	59,15
818,629	58,99
819,046	59,17
819,462	59,19
819,879	59,22
820,295	59,25
820,712	59,61
821,128	59,61
821,544	59,3
821,96	59,47
822,376	59,57
822,792	59,21
823,208	59,51
823,624	59,46
824,039	59,32
824,455	59,46
824,87	59,35
825,286	59,62
825,701	59,36
826,116	59,28
826,531	59,25
826,946	59,29
827,361	59,29
827,776	59,41
828,19	59,79
828,605	59,61
829,02	59,42
829,434	59,43
829,848	59,7
830,263	59,39
830,677	59,08
831,091	59,22
831,505	59,41
831,919	59,29
832,332	59,62
832,746	59,1
833,16	59,32
833,573	59,44
833,987	59,42
834,4	59,43
834,813	59,26
835,226	59,46
835,639	59,21
836,052	59,47
836,465	59,58
836,878	59,37
837,29	59,41
837,703	59,78
838,116	59,44
838,528	59,31
838,94	59,44
839,352	59,32
839,765	59,26
840,177	59,57
840,589	59,19
841	59,67
841,412	59,58
841,824	59,41
842,235	59,4
842,647	59,33
843,058	59,56
843,47	59,41
843,881	59,57
844,292	59,84
844,703	59,2
845,114	59,41
845,525	59,43
845,935	59,68
846,346	59,63
846,757	59,75
847,167	59,56
847,577	59,77
847,988	59,23
848,398	59,88
848,808	59,72
849,218	59,6
849,628	59,29
850,038	59,67
850,448	59,49
850,857	59,25
851,267	59,64
851,676	59,78
852,086	59,69
852,495	59,77
852,904	59,44
853,313	59,79
853,722	60,04
854,131	59,85
854,54	59,36
854,949	59,69
855,357	59,38
855,766	59,51
856,174	59,39
856,583	59,41
856,991	60,15
857,399	59,77
857,807	59,46
858,215	59,82
858,623	59,85
859,031	59,69
859,439	59,7
859,846	59,34
860,254	59,59
860,661	59,86
861,069	59,92
861,476	60,13
861,883	59,78
862,29	59,82
862,697	60,17
863,104	59,42
863,511	59,6
863,918	59,86
864,325	60,11
864,731	59,75
865,138	59,77
865,544	59,64
865,95	59,99
866,357	59,35
866,763	59,89
867,169	59,95
867,575	59,6
867,98	59,63
868,386	60,01
868,792	59,48
869,197	60,17
869,603	59,63
870,008	60,01
870,414	60,24
870,819	60,09
871,224	60,21
871,629	59,82
872,034	59,94
872,439	59,65
872,844	59,97
873,248	59,78
873,653	59,56
874,057	59,73
874,462	59,44
874,866	60,15
875,27	59,78
875,674	59,85
876,078	60,14
876,482	60,15
876,886	60
877,29	60,05
877,694	59,71
878,097	60,12
878,501	60,17
878,904	59,8
879,308	59,96
879,711	60,06
880,114	59,97
880,517	60,29
880,92	60,12
881,323	59,95
881,726	59,99
882,128	60,11
882,531	60,57
882,934	60,05
883,336	60,19
883,738	59,95
884,141	60,07
884,543	59,98
884,945	59,9
885,347	60,35
885,749	60,03
886,151	60,18
886,552	60,01
886,954	59,8
887,355	60,08
887,757	60,15
888,158	59,87
888,56	60,06
888,961	60,28
889,362	60,04
889,763	60,42
890,164	60,09
890,565	60,06
890,965	60,02
891,366	60,11
891,767	60,36
892,167	59,72
892,567	60,3
892,968	59,87
893,368	60,02
893,768	59,74
894,168	60,26
894,568	59,83
894,968	60,46
895,368	60,51
895,767	60,64
896,167	59,88
896,566	60,16
896,966	60,01
897,365	60,01
897,764	60,53
898,164	60,27
898,563	60,43
898,962	60,41
899,361	60,17
899,759	60,22
900,158	60,38
900,557	60,22
900,955	60,5
901,354	59,94
901,752	60,11
902,15	60,2
902,548	60,55
902,947	60,59
903,345	59,91
903,742	60,56
904,14	60,4
904,538	60,24
904,936	60,28
905,333	60,37
905,731	59,85
906,128	60,42
906,525	60,03
906,923	60,04
907,32	60,42
907,717	60,31
908,114	60,38
908,511	60,27
908,907	60,77
909,304	60,56
909,701	60,52
910,097	60,76
910,494	60,46
910,89	60,34
911,286	60,35
911,682	60,79
912,078	59,85
912,474	60,22
912,87	60,15
913,266	60,08
913,662	60,42
914,058	60,69
914,453	60,19
914,849	60,17
915,244	60,71
915,639	60,42
916,034	60,25
916,43	59,84
916,825	59,9
917,22	60,46
917,614	60,42
918,009	60,07
918,404	60,1
918,798	60,89
919,193	60,5
919,587	60,3
919,982	60,61
920,376	59,87
920,77	60,27
921,164	60,64
921,558	60,78
921,952	60,22
922,346	60,38
922,74	60,26
923,133	59,95
923,527	60,03
923,92	60,19
924,314	60,08
924,707	60,28
925,1	60,1
925,493	60,54
925,886	60,17
926,279	60
926,672	59,92
927,065	60,48
927,457	59,99
927,85	59,85
928,243	60,38
928,635	60,61
929,027	60,2
929,42	60,61
929,812	60,08
930,204	59,92
930,596	60,26
930,988	60,3
931,379	60,11
931,771	60,25
932,163	60,18
932,554	60,24
932,946	59,96
933,337	60,57
933,729	59,91
934,12	60,1
934,511	60,08
934,902	59,55
935,293	59,95
935,684	59,96
936,075	59,62
936,465	60,82
936,856	60,23
937,246	59,52
937,637	59,58
938,027	60,01
938,417	60,13
938,808	59,96
939,198	59,88
939,588	59,79
939,978	60,06
940,368	59,15
940,757	60,16
941,147	60,08
941,537	59,26
941,926	60,2
942,315	59,91
942,705	60,56
943,094	59,3
943,483	59,96
943,872	59,09
944,261	59,44
944,65	59,25
945,039	59,67
945,428	59,04
945,816	59,42
946,205	59,33
946,593	59,1
946,982	58,76
947,37	59,43
947,758	60,51
948,146	59,78
948,534	58,56
948,922	58,96
949,31	58,97
949,698	59,7
950,086	58,86
950,473	59,61
950,861	59,04
951,248	59,34
951,636	58,84
952,023	59,36
952,41	59,08
952,797	58,92
953,184	59,01
953,571	59,26
953,958	59,16
954,345	58,99
954,731	58,53
955,118	58,83
955,505	58,53
955,891	58,75
956,277	58,71
956,664	59,08
957,05	58,47
957,436	58,44
957,822	58,48
958,208	58,71
958,594	58,43
958,979	58,67
959,365	57,96
959,751	58,2
960,136	58,94
960,522	57,96
960,907	58,49
961,292	58,56
961,677	58,09
962,062	58,46
962,447	58,33
962,832	58,55
963,217	58,16
963,602	58,41
963,986	58,34
964,371	58,13
964,756	58,7
965,14	58,59
965,524	58,1
965,908	58,19
966,293	58,75
966,677	58,4
967,061	58,38
967,445	57,8
967,828	58,93
968,212	57,75
968,596	58,57
968,979	58,72
969,363	58,34
969,746	58,18
970,129	58,53
970,513	58,22
970,896	58,28
971,279	58,53
971,662	58,31
972,045	58,25
972,428	58,29
972,81	58,18
973,193	58,56
973,575	58,85
973,958	58,51
974,34	58,82
974,723	57,88
975,105	58,24
975,487	58,66
975,869	58,07
976,251	57,9
976,633	58,98
977,015	58,21
977,396	58,5
977,778	58,16
978,16	58,03
978,541	58,2
978,922	58,27
979,304	58,43
979,685	58,72
980,066	57,89
980,447	58,65
980,828	58,12
981,209	57,92
981,59	58,4
981,97	58,61
982,351	58,15
982,732	58,66
983,112	58,39
983,493	58
983,873	58,34
984,253	58,64
984,633	57,59
985,013	59,05
985,393	58,64
985,773	58,77
986,153	58,58
986,533	58,08
986,912	58,63
987,292	58,39
987,671	58,36
988,051	58,55
988,43	58,29
988,809	59
989,188	58,59
989,567	58,99
989,946	58,36
990,325	58,73
990,704	58,4
991,083	58,22
991,461	57,97
991,84	58,76
992,218	58,65
992,597	58,31
992,975	59,15
993,353	58,08
993,732	58,36
994,11	59,3
994,488	58,79
994,866	58,88
995,243	58,41
995,621	58,2
995,999	58,52
996,376	59,32
996,754	59,25
997,131	58,94
997,509	58,89
997,886	58,03
998,263	58,67
998,64	59,3
999,017	58,81
999,394	59,02
999,771	58,88
1000,148	58,92
1000,524	58,9
1000,901	58,55
1001,277	58,67
1001,654	59,2
1002,03	59,49
1002,406	59,14
1002,783	59,42
1003,159	58,91
1003,535	59,05
1003,911	59,1
1004,286	59,75
1004,662	58,62
1005,038	59,23
1005,414	59,7
1005,789	59,42
1006,164	58,96
1006,54	59,42
1006,915	59,04
1007,29	59,59
1007,665	58,84
1008,04	59,96
1008,415	58,5
1008,79	58,94
1009,165	59,19
1009,54	59,33
1009,914	59,89
1010,289	59,03
1010,663	59,16
1011,038	59,35
1011,412	59,17
1011,786	59,59
1012,16	59,61
1012,535	59,06
1012,909	58,77
1013,282	60,21
1013,656	59,06
1014,03	59,04
1014,404	60,03
1014,777	59,02
1015,151	59,96
1015,524	59,4
1015,897	59,15
1016,271	60,13
1016,644	60,02
1017,017	59,56
1017,39	58,84
1017,763	58,65
1018,136	58,9
1018,508	59,8
1018,881	59,42
1019,254	59,53
1019,626	59,96
1019,999	59,49
1020,371	61,11
1020,743	60,1
1021,116	59,36
1021,488	59,56
1021,86	59,39
1022,232	59,62
1022,604	59,31
1022,975	59,78
1023,347	59,53
1023,719	58,89
1024,09	59,9
1024,462	60,24
1024,833	59,88
1025,204	59,41
1025,576	60,5
1025,947	59,26
1026,318	60,17
1026,689	60,28
1027,06	59,11
1027,431	59,43
1027,801	60,62
1028,172	59,78
1028,543	60,55
1028,913	60,14
1029,284	60,03
1029,654	59,98
1030,024	60,56
1030,394	59,87
1030,764	59,88
1031,135	59,84
1031,504	60,6
1031,874	60,23
1032,244	60,81
1032,614	60,3
1032,983	60,19
1033,353	60,5
1033,722	59,35
1034,092	60,26
1034,461	60,02
1034,83	60,64
1035,2	60,11
1035,569	59,49
1035,938	60,38
1036,307	59,76
1036,675	60,24
1037,044	59,92
1037,413	60,98
1037,781	60,86
1038,15	59,94
1038,518	59,89
1038,887	60,11
1039,255	59,74
1039,623	59,6
1039,991	59,92
1040,359	59,92
1040,727	60,56
1041,095	59,61
1041,463	60,27
1041,831	60,2
1042,198	59,64
1042,566	60,19
1042,933	59,87
1043,301	59,92
1043,668	60,17
1044,035	59,66
1044,402	60,28
1044,77	59,71
1045,137	61,15
1045,503	59,75
1045,87	60,99
1046,237	59,72
1046,604	59,44
1046,97	60,84
1047,337	60,45
1047,703	60,05
1048,07	60,54
1048,436	60,11
1048,802	60,28
1049,168	60,82
1049,534	61,05
1049,9	59,96
1050,266	60,61
1050,632	60,93
1050,998	60,18
1051,364	60,03
1051,729	60,64
1052,095	60,58
1052,46	60,55
1052,825	60,82
1053,191	60,57
1053,556	61,23
1053,921	61,16
1054,286	60,69
1054,651	59,96
1055,016	60,95
1055,381	60,81
1055,745	61,32
1056,11	61,12
1056,475	60,99
1056,839	60,16
1057,203	60,24
1057,568	60,15
1057,932	61,81
1058,296	59,56
1058,66	61,52
1059,024	60,46
1059,388	59,93
1059,752	60,59
1060,116	61,26
1060,48	61,14
1060,843	60
1061,207	60,53
1061,57	60,44
1061,934	62,55
1062,297	59,7
1062,66	59,75
1063,023	59,93
1063,386	62,14
1063,749	60,46
1064,112	61,2
1064,475	60,04
1064,838	59,52
1065,201	60,83
1065,563	61,3
1065,926	60,39
1066,288	60,69
1066,651	59,06
1067,013	61,2
1067,375	60,58
1067,737	61,09
1068,099	60,72
1068,461	61,47
1068,823	61,45
1069,185	60,31
1069,547	60,46
1069,909	60,86
1070,27	60,22
1070,632	59,98
1070,993	59,72
1071,355	61,3
1071,716	60,25
1072,077	59,4
1072,438	60,32
1072,799	60,57
1073,16	60,6
1073,521	59,85
1073,882	60,72
1074,243	60,89
1074,603	60,16
1074,964	62,44
1075,325	60,93
1075,685	58,52
1076,045	61,53
1076,406	59,2
1076,766	60,98
1077,126	60,07
1077,486	58,49
1077,846	60,52
1078,206	61,46
1078,566	60,05
1078,925	59,68
1079,285	61,56
1079,645	59,01
1080,004	60,79
1080,364	60,66
1080,723	61,61
1081,082	60,38
1081,442	61,19
1081,801	61,01
1082,16	59,88
1082,519	59,42
1082,878	60,29
1083,237	61,51
1083,595	60,54
1083,954	62,46
1084,313	60,39
1084,671	60,21
1085,03	58,8
1085,388	60,93
1085,746	59,93
1086,104	60,99
1086,463	60,62
1086,821	62,05
1087,179	59,94
1087,537	61,45
1087,894	62,01
1088,252	60,03
1088,61	60,99
1088,967	59,32
1089,325	60,1
1089,682	62,75
1090,04	59,7
1090,397	61,13
1090,754	60,61
1091,111	61,75
1091,469	61,22
1091,826	59,67
1092,182	61,06
1092,539	61,88
1092,896	59,87
1093,253	59,37
1093,609	60,97
1093,966	61,18
1094,322	63,37
1094,679	60,34
1095,035	60,55
1095,391	59,78
1095,748	60,66
1096,104	60,51
1096,46	59,38
1096,816	60,86
1097,171	61,36
1097,527	59,57
1097,883	61,08
1098,239	60,48
1098,594	60,84
1098,95	58,92
1099,305	60,27
1099,66	61,78
1100,016	58,9
1100,371	58,87
1100,726	58,43
1101,081	60,76
1101,436	60,28
1101,791	60,91
1102,146	59,6
1102,5	58,86
1102,855	59,88
1103,21	58,86
1103,564	61,83
1103,918	61,01
1104,273	61,67
1104,627	61,19
1104,981	59,82
1105,335	58,59
1105,69	59,52
1106,043	63,06
1106,397	60,75
1106,751	64,91
1107,105	58,83
1107,459	58,61
1107,812	60,04
1108,166	61,06
1108,519	60,12
1108,873	59,69
1109,226	62,45
1109,579	58,66
1109,932	58,15
1110,285	62,39
1110,638	57,09
1110,991	61,47
1111,344	59,77
1111,697	58,63
1112,05	60,74
1112,402	61,05
1112,755	60,7
1113,107	61,36
1113,46	57,31
1113,812	58,85
1114,164	56,33
1114,517	58,93
1114,869	48,6
1115,221	68,42
1115,573	58,65
1115,924	71,43
