Data from F1__Relative__1__00011.txt Node

Date: Fri Feb 02 12:33:12 CET 2024
User: diatiterra
Spectrometer: HDX00911
Trigger mode: 0
Integration Time (sec): 6,000000E-3
Scans to average: 2
Nonlinearity correction enabled: false
Boxcar width: 0
Storing dark spectrum: false
XAxis mode: Wavelengths
Number of Pixels in Spectrum: 2068
>>>>>Begin Spectral Data<<<<<
194,468	84,13
195,025	64,14
195,581	81,13
196,138	69,7
196,694	66,33
197,251	65,98
197,807	64,58
198,363	51,56
198,919	52,22
199,474	56,23
200,03	52,72
200,586	54,89
201,141	50,79
201,696	54,66
202,251	59,56
202,806	49,86
203,361	51,88
203,916	50,59
204,471	56,27
205,025	50,59
205,58	55,59
206,134	55,49
206,688	58,36
207,242	55,56
207,796	52,36
208,35	59,27
208,904	60,55
209,457	50
210,011	57,14
210,564	52,1
211,117	57,05
211,67	54,19
212,223	55,81
212,776	55,8
213,329	52,73
213,881	63,09
214,434	53,59
214,986	62,62
215,538	55,7
216,09	58,42
216,642	51,32
217,194	55,18
217,746	61,26
218,297	57,68
218,849	52,79
219,4	51,07
219,951	54,35
220,502	61,62
221,053	62,5
221,604	66,3
222,155	54,52
222,705	61,08
223,256	59,86
223,806	61,24
224,356	66,67
224,906	50
225,456	52,49
226,006	56,33
226,556	52,24
227,106	53,56
227,655	56,48
228,204	52,07
228,754	53,63
229,303	57,33
229,852	51,08
230,401	57,41
230,949	55,45
231,498	55,36
232,047	61,15
232,595	51,49
233,143	52,4
233,691	57,37
234,239	55,02
234,787	57,04
235,335	53,59
235,883	53,98
236,43	61,11
236,978	58,55
237,525	53,14
238,072	46,13
238,619	56,88
239,166	51,78
239,713	63,54
240,26	51,55
240,806	59,16
241,353	60,73
241,899	55,45
242,445	55,48
242,991	60,06
243,537	57,89
244,083	54,34
244,629	57,19
245,174	52,24
245,72	55,7
246,265	57,38
246,81	61,72
247,355	54,55
247,9	49,18
248,445	57,42
248,99	58,82
249,534	53,77
250,079	55,59
250,623	56,23
251,168	63,27
251,712	58,44
252,256	56,71
252,8	50
253,343	55,52
253,887	56,15
254,43	50,33
254,974	59,21
255,517	55
256,06	62
256,603	60,14
257,146	56,21
257,689	63,73
258,232	69,44
258,774	60,96
259,317	52,27
259,859	53,67
260,401	64,14
260,943	58,36
261,485	67,97
262,027	51,61
262,569	59,74
263,11	52,92
263,652	62,8
264,193	53,24
264,734	59,79
265,275	58,82
265,816	60,81
266,357	53,77
266,898	62,08
267,438	55,02
267,979	59,09
268,519	59,42
269,059	51,21
269,6	65,67
270,14	61,43
270,68	63,03
271,219	54,7
271,759	56,81
272,298	54,31
272,838	58,2
273,377	55,74
273,916	61,43
274,455	64,81
274,994	63,33
275,533	60,42
276,072	68,77
276,61	64,13
277,149	63,25
277,687	55,81
278,225	56,45
278,763	60,9
279,301	60,43
279,839	57
280,377	57,09
280,914	55,83
281,452	56,08
281,989	65,4
282,526	56,38
283,064	64,52
283,601	53,11
284,137	61,99
284,674	50,32
285,211	55,93
285,747	58,76
286,284	59,93
286,82	55,97
287,356	55,16
287,892	57,45
288,428	62,32
288,964	58,48
289,5	63,19
290,035	61,15
290,571	54,45
291,106	50,17
291,641	55,1
292,176	51,89
292,711	58,39
293,246	50,96
293,781	60,42
294,315	60,15
294,85	54,43
295,384	55,56
295,918	56,42
296,453	55,9
296,987	53
297,52	58,03
298,054	62,9
298,588	55,48
299,121	56,69
299,655	50,49
300,188	61,07
300,721	50,84
301,254	66,14
301,787	50,69
302,32	53,95
302,853	58,78
303,385	63,67
303,918	52,45
304,45	54,98
304,982	56,38
305,514	50,57
306,046	44,15
306,578	53,36
307,11	54,98
307,641	50,34
308,173	52,19
308,704	49,83
309,236	52,22
309,767	54,79
310,298	47,94
310,829	49,1
311,359	52,61
311,89	54,14
312,421	43,29
312,951	50,47
313,481	58,43
314,012	58,55
314,542	53,79
315,072	51,75
315,601	49,36
316,131	48,8
316,661	56,04
317,19	53,95
317,72	45,42
318,249	60,76
318,778	55,12
319,307	52,34
319,836	51,81
320,365	54,21
320,893	56,89
321,422	49,67
321,95	60,69
322,479	58,89
323,007	51,39
323,535	54,37
324,063	51,12
324,591	55,24
325,118	52,09
325,646	56,47
326,173	49,5
326,701	64,44
327,228	60,93
327,755	54,1
328,282	51,15
328,809	54,86
329,336	52,78
329,862	53,92
330,389	43,75
330,915	52,68
331,441	50,34
331,968	54,36
332,494	50,82
333,02	57,48
333,545	54,74
334,071	53,46
334,597	46,79
335,122	52,53
335,648	54,87
336,173	47,88
336,698	42,86
337,223	46,77
337,748	51,6
338,272	42,19
338,797	55,23
339,322	37,31
339,846	49,64
340,37	45,76
340,894	39,31
341,419	46,18
341,942	42,68
342,466	49,69
342,99	44,82
343,514	47,5
344,037	41,85
344,56	38,3
345,084	42,74
345,607	45,79
346,13	40,23
346,653	41,09
347,175	46,15
347,698	42,3
348,221	43,3
348,743	41,13
349,265	40,8
349,787	39,72
350,309	46,35
350,831	38,12
351,353	45,66
351,875	42,6
352,397	40,25
352,918	37,24
353,439	31,6
353,961	40,25
354,482	35,2
355,003	41,52
355,524	38,62
356,044	39,72
356,565	39,05
357,086	37,19
357,606	32,79
358,126	34,74
358,646	39,52
359,167	36,07
359,687	36
360,206	35,68
360,726	36,24
361,246	31,22
361,765	37,29
362,285	34,26
362,804	31,49
363,323	36,49
363,842	32,85
364,361	33,41
364,88	30,74
365,398	30,8
365,917	32,74
366,435	31,79
366,954	31,29
367,472	33,52
367,99	32,04
368,508	31,31
369,026	30,13
369,544	33,27
370,061	27,58
370,579	25,65
371,096	29,36
371,613	29,09
372,131	29,34
372,648	30,08
373,165	31,72
373,681	26,29
374,198	25
374,715	27,91
375,231	27,87
375,747	27,88
376,264	28,55
376,78	26,25
377,296	24,28
377,812	24,86
378,327	27,82
378,843	27,76
379,359	23,6
379,874	24,54
380,389	25,44
380,905	23,51
381,42	23,67
381,935	23,4
382,449	23,68
382,964	22,87
383,479	23,72
383,993	21,44
384,508	20,46
385,022	19,7
385,536	24,38
386,05	22,59
386,564	23,04
387,078	20,91
387,592	20,47
388,105	20,99
388,619	21,04
389,132	19,05
389,645	18,75
390,158	18,46
390,671	18,72
391,184	18,95
391,697	16,53
392,21	17,61
392,722	18,6
393,235	15,41
393,747	18,43
394,259	17,41
394,771	16,6
395,283	17,01
395,795	17,71
396,307	15,57
396,818	15,91
397,33	16,63
397,841	17,25
398,353	13,56
398,864	15,79
399,375	14,38
399,886	14,17
400,397	13,71
400,907	13,5
401,418	14,22
401,928	12,09
402,439	14,09
402,949	12,44
403,459	13,07
403,969	13,71
404,479	11,78
404,989	10,94
405,498	11,57
406,008	11,92
406,517	11,28
407,027	11,98
407,536	10,65
408,045	10,55
408,554	10,68
409,063	9,14
409,572	9,64
410,08	8,92
410,589	7,47
411,097	8,93
411,606	8,2
412,114	7,57
412,622	7,25
413,13	7,22
413,638	7,57
414,145	6,7
414,653	6,53
415,16	6,91
415,668	6,88
416,175	6,45
416,682	6,46
417,189	6,37
417,696	6,37
418,203	5,93
418,71	6,58
419,216	5,91
419,723	5,79
420,229	5,34
420,735	5,43
421,242	5,5
421,748	5,53
422,254	5,04
422,759	5,92
423,265	5,36
423,771	5,5
424,276	5,33
424,781	5,03
425,287	5,3
425,792	5,23
426,297	5
426,802	4,91
427,306	5,12
427,811	5,13
428,316	5,54
428,82	5,15
429,324	5,23
429,829	5,1
430,333	5,39
430,837	4,79
431,34	4,84
431,844	5,02
432,348	5,2
432,851	4,71
433,355	5,01
433,858	4,51
434,361	4,77
434,864	4,84
435,367	4,52
435,87	4,85
436,373	4,85
436,876	4,87
437,378	4,81
437,88	4,49
438,383	4,61
438,885	4,38
439,387	4,27
439,889	4,68
440,391	4,55
440,892	4,35
441,394	4,76
441,896	4,3
442,397	4,37
442,898	3,93
443,399	4,62
443,9	4,44
444,401	4,5
444,902	4,29
445,403	4,34
445,903	4,48
446,404	4,45
446,904	4,38
447,405	4,67
447,905	4,39
448,405	4,45
448,905	4,43
449,404	4,78
449,904	4,48
450,404	4,55
450,903	4,44
451,403	4,4
451,902	4,57
452,401	4,57
452,9	4,48
453,399	4,46
453,898	4,44
454,396	4,45
454,895	4,59
455,393	4,52
455,892	4,67
456,39	4,33
456,888	4,51
457,386	4,48
457,884	4,2
458,382	4,66
458,879	4,42
459,377	4,69
459,874	4,31
460,372	4,36
460,869	4,45
461,366	4,4
461,863	4,3
462,36	4,71
462,857	4,54
463,353	4,38
463,85	4,58
464,346	4,42
464,843	4,27
465,339	4,5
465,835	4,29
466,331	4,35
466,827	4,3
467,323	4,42
467,818	4,33
468,314	4,32
468,809	4,32
469,305	4,52
469,8	4,4
470,295	4,12
470,79	4,48
471,285	4,26
471,78	4,26
472,274	4,55
472,769	4,29
473,263	4,43
473,758	4,31
474,252	4,59
474,746	4,42
475,24	4,14
475,734	4,48
476,228	4,13
476,721	4,49
477,215	4,37
477,708	4,3
478,202	4,14
478,695	4,51
479,188	4,3
479,681	4,37
480,174	4,35
480,667	4,36
481,159	4,39
481,652	4,76
482,144	4,41
482,637	4,44
483,129	4,28
483,621	4,43
484,113	4,47
484,605	4,61
485,097	4,39
485,588	4,41
486,08	4,43
486,571	4,41
487,063	4,25
487,554	4,31
488,045	4,54
488,536	4,54
489,027	4,56
489,518	4,36
490,008	4,39
490,499	4,47
490,989	4,44
491,48	4,55
491,97	4,46
492,46	4,66
492,95	4,55
493,44	4,56
493,93	4,84
494,419	4,63
494,909	4,65
495,398	4,53
495,888	4,8
496,377	4,75
496,866	4,68
497,355	4,73
497,844	4,82
498,333	4,86
498,821	4,92
499,31	4,64
499,798	4,77
500,287	4,76
500,775	4,93
501,263	5,13
501,751	4,8
502,239	4,96
502,727	4,97
503,215	5,01
503,702	4,96
504,19	5,06
504,677	5,17
505,164	5,43
505,651	5,47
506,139	5,42
506,625	5,33
507,112	5,54
507,599	5,48
508,086	5,57
508,572	5,6
509,058	5,52
509,545	5,68
510,031	5,7
510,517	5,97
511,003	5,98
511,489	5,94
511,974	5,95
512,46	6,1
512,946	6,36
513,431	6,26
513,916	6,48
514,401	6,53
514,887	6,52
515,371	6,64
515,856	6,73
516,341	6,93
516,826	6,8
517,31	6,94
517,795	7,19
518,279	7,26
518,763	7,5
519,247	7,49
519,731	7,66
520,215	7,7
520,699	7,95
521,182	8,15
521,666	8,13
522,149	8,16
522,633	8,33
523,116	8,42
523,599	8,48
524,082	8,56
524,565	8,77
525,048	9,13
525,53	8,84
526,013	9,06
526,495	9,17
526,978	9,24
527,46	9,27
527,942	9,65
528,424	9,41
528,906	9,65
529,388	9,91
529,87	10,03
530,351	9,87
530,833	10,15
531,314	10,06
531,795	10
532,277	10,03
532,758	10,12
533,238	10,27
533,719	10,3
534,2	10,33
534,681	10,53
535,161	10,49
535,642	10,61
536,122	10,76
536,602	10,66
537,082	10,71
537,562	10,66
538,042	10,91
538,522	10,73
539,001	10,81
539,481	10,77
539,96	11,13
540,44	10,94
540,919	11,02
541,398	10,98
541,877	11,01
542,356	11,21
542,835	11,11
543,313	11,01
543,792	11,16
544,27	11,09
544,749	11,33
545,227	11,32
545,705	11,25
546,183	11,14
546,661	11,19
547,139	11,19
547,616	11,21
548,094	11,24
548,571	11,24
549,049	11,21
549,526	11,38
550,003	11,37
550,48	11,55
550,957	11,21
551,434	11,25
551,911	11,25
552,387	11,38
552,864	11,38
553,34	11,41
553,817	11,46
554,293	11,59
554,769	11,66
555,245	11,59
555,721	11,3
556,197	11,43
556,672	11,53
557,148	11,31
557,623	11,37
558,099	11,65
558,574	11,61
559,049	11,5
559,524	11,36
559,999	11,38
560,474	11,44
560,948	11,22
561,423	11,31
561,897	11,3
562,372	11,22
562,846	11,08
563,32	11,32
563,794	11,04
564,268	10,96
564,742	10,86
565,216	10,76
565,69	10,86
566,163	10,71
566,636	10,75
567,11	10,75
567,583	10,59
568,056	10,6
568,529	10,32
569,002	10,4
569,475	10,49
569,947	10,27
570,42	10,16
570,892	10,34
571,365	9,97
571,837	9,86
572,309	9,88
572,781	9,79
573,253	9,62
573,725	9,56
574,197	9,68
574,668	9,51
575,14	9,54
575,611	9,49
576,082	9,45
576,554	9,39
577,025	9,23
577,496	9,15
577,967	9,01
578,437	9,19
578,908	8,94
579,379	8,96
579,849	8,99
580,319	8,9
580,79	8,76
581,26	8,8
581,73	8,7
582,2	8,65
582,669	8,55
583,139	8,48
583,609	8,43
584,078	8,5
584,548	8,47
585,017	8,51
585,486	8,38
585,955	8,3
586,424	8,34
586,893	8,33
587,362	8,26
587,83	8,19
588,299	8,23
588,767	8,36
589,236	8,12
589,704	8,01
590,172	8,11
590,64	7,95
591,108	8,05
591,576	8,02
592,043	8,02
592,511	8,03
592,978	7,85
593,446	7,7
593,913	7,85
594,38	7,91
594,847	7,74
595,314	7,85
595,781	7,89
596,248	7,79
596,715	7,7
597,181	7,73
597,647	7,73
598,114	7,71
598,58	7,88
599,046	7,62
599,512	7,74
599,978	7,68
600,444	7,6
600,91	7,67
601,375	7,64
601,841	7,64
602,306	7,66
602,771	7,72
603,236	7,54
603,702	7,61
604,167	7,52
604,631	7,61
605,096	7,48
605,561	7,44
606,025	7,47
606,49	7,48
606,954	7,39
607,418	7,24
607,882	7,39
608,347	7,3
608,81	7,3
609,274	7,26
609,738	7,2
610,202	7,24
610,665	7,09
611,128	7,15
611,592	7,11
612,055	7,18
612,518	7,13
612,981	7,05
613,444	7,02
613,907	6,99
614,369	7
614,832	6,92
615,294	6,83
615,757	6,87
616,219	6,85
616,681	6,87
617,143	6,79
617,605	6,72
618,067	6,81
618,529	6,71
618,99	6,6
619,452	6,66
619,913	6,61
620,375	6,69
620,836	6,67
621,297	6,61
621,758	6,61
622,219	6,57
622,68	6,56
623,14	6,46
623,601	6,47
624,061	6,47
624,522	6,45
624,982	6,52
625,442	6,41
625,902	6,48
626,362	6,5
626,822	6,5
627,282	6,46
627,742	6,52
628,201	6,39
628,661	6,37
629,12	6,36
629,579	6,49
630,038	6,38
630,497	6,35
630,956	6,26
631,415	6,39
631,874	6,36
632,332	6,24
632,791	6,31
633,249	6,21
633,708	6,32
634,166	6,26
634,624	6,28
635,082	6,19
635,54	6,19
635,998	6,13
636,455	6,15
636,913	6,04
637,37	6,14
637,828	5,97
638,285	6,01
638,742	6,04
639,199	5,9
639,656	5,87
640,113	5,79
640,57	5,8
641,027	5,73
641,483	5,71
641,94	5,63
642,396	5,64
642,852	5,56
643,309	5,55
643,765	5,4
644,221	5,4
644,676	5,42
645,132	5,23
645,588	5,27
646,043	5,25
646,499	5,17
646,954	5,21
647,409	5,19
647,864	5,2
648,319	5,17
648,774	5,05
649,229	5,11
649,684	5,01
650,139	5
650,593	4,96
651,047	4,99
651,502	4,95
651,956	4,92
652,41	4,92
652,864	4,88
653,318	4,88
653,772	4,92
654,225	4,82
654,679	4,91
655,133	4,85
655,586	4,91
656,039	4,9
656,492	4,92
656,946	4,84
657,399	4,86
657,851	4,85
658,304	4,85
658,757	4,75
659,209	4,78
659,662	4,69
660,114	4,75
660,567	4,74
661,019	4,62
661,471	4,68
661,923	4,64
662,375	4,59
662,826	4,65
663,278	4,57
663,73	4,57
664,181	4,6
664,632	4,61
665,084	4,58
665,535	4,6
665,986	4,6
666,437	4,61
666,888	4,53
667,338	4,56
667,789	4,6
668,24	4,51
668,69	4,62
669,14	4,64
669,591	4,52
670,041	4,59
670,491	4,62
670,941	4,65
671,391	4,68
671,84	4,67
672,29	4,7
672,74	4,71
673,189	4,84
673,638	4,89
674,088	4,89
674,537	4,79
674,986	4,92
675,435	4,93
675,883	4,93
676,332	5,03
676,781	5,14
677,229	5,22
677,678	5,17
678,126	5,27
678,574	5,19
679,022	5,38
679,47	5,36
679,918	5,48
680,366	5,37
680,814	5,52
681,261	5,58
681,709	5,6
682,156	5,7
682,604	5,78
683,051	5,81
683,498	5,86
683,945	5,95
684,392	6,04
684,839	6,03
685,286	6,07
685,732	6,04
686,179	6,2
686,625	6,14
687,071	6,3
687,518	6,24
687,964	6,28
688,41	6,45
688,856	6,58
689,301	6,59
689,747	6,54
690,193	6,82
690,638	6,92
691,084	7,01
691,529	7,06
691,974	7,3
692,419	7,38
692,864	7,57
693,309	7,64
693,754	7,94
694,199	8,18
694,643	8,27
695,088	8,49
695,532	8,82
695,977	9,04
696,421	9,23
696,865	9,6
697,309	9,7
697,753	9,9
698,197	10,37
698,64	10,76
699,084	11,06
699,527	11,24
699,971	11,6
700,414	11,93
700,857	12,36
701,3	12,54
701,743	12,94
702,186	13,16
702,629	13,77
703,072	13,99
703,515	14,45
703,957	14,76
704,399	15,17
704,842	15,52
705,284	15,82
705,726	16,28
706,168	16,69
706,61	16,87
707,052	17,41
707,494	17,68
707,935	18,18
708,377	18,5
708,818	18,78
709,26	19,39
709,701	19,74
710,142	20,1
710,583	20,49
711,024	20,94
711,465	21,45
711,905	21,65
712,346	22,09
712,787	22,51
713,227	22,91
713,667	23,31
714,108	23,87
714,548	24,15
714,988	24,71
715,428	25,31
715,868	25,61
716,307	25,92
716,747	26,32
717,186	26,82
717,626	27,25
718,065	27,58
718,504	28,22
718,944	28,52
719,383	28,96
719,822	29,52
720,261	30,1
720,699	30,27
721,138	30,8
721,576	31,31
722,015	31,58
722,453	32,08
722,892	32,38
723,33	32,72
723,768	33,3
724,206	33,51
724,644	34,17
725,081	34,59
725,519	34,63
725,957	35,29
726,394	35,72
726,832	36,29
727,269	36,71
727,706	36,72
728,143	37,15
728,58	37,84
729,017	38,28
729,454	38,7
729,89	38,86
730,327	39,31
730,764	39,58
731,2	39,73
731,636	40,43
732,072	40,46
732,509	41,13
732,945	41,19
733,38	41,33
733,816	41,91
734,252	42,01
734,688	42,38
735,123	42,81
735,559	42,9
735,994	43,61
736,429	43,68
736,864	43,57
737,299	44,03
737,734	44,45
738,169	44,48
738,604	44,95
739,038	45,23
739,473	45,26
739,907	45,48
740,342	45,77
740,776	45,98
741,21	46,21
741,644	46,2
742,078	46,3
742,512	46,39
742,946	46,92
743,379	47,36
743,813	47,45
744,246	47,29
744,68	47,31
745,113	47,62
745,546	47,79
745,979	47,91
746,412	48,08
746,845	48,52
747,278	48,32
747,711	48,35
748,143	48,91
748,576	48,57
749,008	48,66
749,441	48,9
749,873	49,04
750,305	49,11
750,737	48,94
751,169	48,78
751,601	49,19
752,032	49,53
752,464	49,24
752,896	49,69
753,327	49,37
753,758	49,56
754,19	49,79
754,621	49,74
755,052	50,03
755,483	49,91
755,914	49,94
756,344	50,09
756,775	50,34
757,206	50,39
757,636	50,54
758,066	50,3
758,497	50,34
758,927	50,83
759,357	50,78
759,787	50,49
760,217	50,18
760,647	50,54
761,076	50,69
761,506	50,87
761,935	50,73
762,365	50,72
762,794	50,83
763,223	50,79
763,653	50,75
764,082	50,88
764,51	51,17
764,939	50,92
765,368	51,25
765,797	51,4
766,225	51,2
766,654	50,98
767,082	51,34
767,51	51,1
767,938	51,15
768,367	51,13
768,795	51,12
769,222	51,48
769,65	51,61
770,078	51,31
770,505	50,86
770,933	51,48
771,36	51,41
771,788	51,79
772,215	51,66
772,642	51,58
773,069	51,59
773,496	51,63
773,923	51,5
774,349	51,61
774,776	51,9
775,203	51,5
775,629	51,82
776,055	51,99
776,482	52,16
776,908	51,73
777,334	51,88
777,76	51,95
778,186	51,9
778,611	52,03
779,037	52,28
779,463	51,93
779,888	51,98
780,314	52,24
780,739	52,2
781,164	52,11
781,589	52,32
782,014	51,88
782,439	52,28
782,864	51,92
783,289	52,28
783,713	52,5
784,138	52,27
784,562	52,38
784,987	52,42
785,411	52,49
785,835	52,25
786,259	52,25
786,683	52,4
787,107	52,21
787,531	52,64
787,954	52,48
788,378	52,74
788,802	52,87
789,225	52,47
789,648	52,88
790,071	52,81
790,495	53,14
790,918	53,07
791,34	53,39
791,763	52,95
792,186	52,96
792,609	52,9
793,031	53,23
793,454	53,39
793,876	52,87
794,298	53,34
794,721	53,49
795,143	53,11
795,565	53,13
795,986	53,27
796,408	53,24
796,83	53,33
797,252	53,49
797,673	53,46
798,094	53,51
798,516	53,44
798,937	53,71
799,358	53,43
799,779	53,75
800,2	53,31
800,621	53,8
801,042	53,65
801,462	53,43
801,883	53,84
802,303	53,5
802,724	53,68
803,144	53,88
803,564	53,65
803,984	53,89
804,404	53,82
804,824	54,03
805,244	54,1
805,664	54,1
806,084	54,01
806,503	53,99
806,923	54,24
807,342	53,8
807,761	54,05
808,18	54,5
808,599	54,21
809,018	54,06
809,437	54,42
809,856	54,2
810,275	54,26
810,693	54,57
811,112	54,04
811,53	54,47
811,949	54,65
812,367	54,17
812,785	54,94
813,203	54,28
813,621	54,53
814,039	54,54
814,457	54,9
814,874	54,91
815,292	55,04
815,709	54,74
816,127	54,6
816,544	54,88
816,961	55,1
817,378	54,39
817,795	54,8
818,212	54,66
818,629	55,06
819,046	54,45
819,462	54,89
819,879	55,04
820,295	55,1
820,712	55,37
821,128	54,95
821,544	55,2
821,96	55,22
822,376	55,32
822,792	55,44
823,208	55,23
823,624	55,13
824,039	55,53
824,455	55,46
824,87	55,41
825,286	55,91
825,701	55,45
826,116	55,28
826,531	55,64
826,946	55,6
827,361	55,39
827,776	55,54
828,19	55,67
828,605	55,66
829,02	55,49
829,434	55,58
829,848	55,91
830,263	55,78
830,677	55,94
831,091	55,74
831,505	56,01
831,919	55,93
832,332	56,07
832,746	55,75
833,16	56,07
833,573	55,92
833,987	55,83
834,4	55,91
834,813	56,48
835,226	56,12
835,639	56,37
836,052	56,29
836,465	56,5
836,878	56,39
837,29	56,12
837,703	56,37
838,116	56,45
838,528	56,27
838,94	56,51
839,352	56,46
839,765	56,63
840,177	56,66
840,589	56,48
841	56,14
841,412	56,73
841,824	56,63
842,235	56,65
842,647	56,78
843,058	56,67
843,47	56,41
843,881	56,74
844,292	56,86
844,703	56,46
845,114	56,63
845,525	56,52
845,935	56,85
846,346	57,5
846,757	56,95
847,167	57,09
847,577	57,45
847,988	56,99
848,398	56,96
848,808	57,05
849,218	56,96
849,628	57,11
850,038	57,04
850,448	57,05
850,857	57,32
851,267	57,22
851,676	57,67
852,086	57,2
852,495	57,23
852,904	57,15
853,313	57,46
853,722	57,95
854,131	57,63
854,54	57,27
854,949	57,66
855,357	57,42
855,766	57,66
856,174	57,2
856,583	57,63
856,991	57,84
857,399	58,25
857,807	57,72
858,215	57,71
858,623	57,76
859,031	57,66
859,439	57,95
859,846	57,99
860,254	57,89
860,661	57,99
861,069	57,91
861,476	57,78
861,883	57,73
862,29	57,79
862,697	58,35
863,104	57,92
863,511	57,97
863,918	58,13
864,325	58,03
864,731	57,98
865,138	58,07
865,544	58,4
865,95	58,17
866,357	58,05
866,763	58,52
867,169	58,33
867,575	58,3
867,98	58,42
868,386	58,45
868,792	58,19
869,197	58,97
869,603	58,42
870,008	58,66
870,414	58,63
870,819	58,72
871,224	58,89
871,629	58,42
872,034	58,59
872,439	58,57
872,844	58,82
873,248	58,71
873,653	58,72
874,057	58,7
874,462	58,57
874,866	59,3
875,27	58,93
875,674	58,33
876,078	58,91
876,482	58,92
876,886	59,18
877,29	58,74
877,694	58,91
878,097	59,06
878,501	58,99
878,904	58,97
879,308	59,31
879,711	59,15
880,114	58,83
880,517	59,03
880,92	59,57
881,323	59,03
881,726	59,09
882,128	59,37
882,531	59,08
882,934	59,38
883,336	59,3
883,738	59,21
884,141	59,34
884,543	59,72
884,945	59,4
885,347	59,59
885,749	59,25
886,151	59,7
886,552	59,26
886,954	59,22
887,355	59,39
887,757	59,65
888,158	59,61
888,56	59,71
888,961	59,37
889,362	59,66
889,763	59,75
890,164	59,61
890,565	59,75
890,965	59,52
891,366	59,66
891,767	59,74
892,167	59,6
892,567	60,05
892,968	59,59
893,368	59,69
893,768	59,8
894,168	59,61
894,568	60,02
894,968	60,23
895,368	60,3
895,767	60,17
896,167	59,83
896,566	59,65
896,966	59,86
897,365	60,21
897,764	60,16
898,164	60,45
898,563	60,45
898,962	60,44
899,361	60,05
899,759	60,31
900,158	60,53
900,557	60,29
900,955	60,18
901,354	60,37
901,752	60,07
902,15	60,86
902,548	60,09
902,947	60,32
903,345	60,63
903,742	60,64
904,14	60,72
904,538	60,55
904,936	60,57
905,333	60,34
905,731	60,34
906,128	61,16
906,525	60,45
906,923	60,46
907,32	60,63
907,717	60,6
908,114	60,77
908,511	60,72
908,907	61,02
909,304	60,38
909,701	60,53
910,097	60,83
910,494	60,55
910,89	61,12
911,286	60,69
911,682	60,8
912,078	60,56
912,474	60,62
912,87	60,65
913,266	60,67
913,662	61,2
914,058	61,29
914,453	60,85
914,849	60,81
915,244	61,06
915,639	61,19
916,034	61,28
916,43	60,84
916,825	61,06
917,22	60,83
917,614	61,3
918,009	60,71
918,404	60,66
918,798	61,51
919,193	61,11
919,587	61,35
919,982	61,18
920,376	61,12
920,77	61,08
921,164	61,37
921,558	61,21
921,952	61,35
922,346	61,53
922,74	61,49
923,133	61,09
923,527	60,39
923,92	60,84
924,314	60,77
924,707	61,11
925,1	60,76
925,493	61,94
925,886	60,73
926,279	61,12
926,672	60,93
927,065	61,52
927,457	61,16
927,85	60,88
928,243	61,36
928,635	61,3
929,027	61,23
929,42	61,09
929,812	61,5
930,204	60,99
930,596	60,75
930,988	61,58
931,379	61,11
931,771	61,31
932,163	60,87
932,554	60,87
932,946	61,32
933,337	61,55
933,729	61,41
934,12	61,07
934,511	60,81
934,902	60,73
935,293	61,38
935,684	60,92
936,075	60,16
936,465	61,11
936,856	60,56
937,246	60,89
937,637	60,47
938,027	61,47
938,417	60,91
938,808	60,82
939,198	60,61
939,588	60,75
939,978	60,9
940,368	60,8
940,757	60,59
941,147	60,64
941,537	60,7
941,926	61,47
942,315	60,83
942,705	61,13
943,094	60,06
943,483	60,85
943,872	61,17
944,261	60,19
944,65	60,81
945,039	60,28
945,428	60,82
945,816	60,8
946,205	60,69
946,593	60,65
946,982	60,76
947,37	60,39
947,758	61,02
948,146	60,5
948,534	59,88
948,922	60,19
949,31	60
949,698	59,42
950,086	59,92
950,473	60,63
950,861	59,95
951,248	60,58
951,636	60,33
952,023	60,33
952,41	60,12
952,797	59,65
953,184	60,38
953,571	60
953,958	59,95
954,345	60,09
954,731	60,06
955,118	59,86
955,505	59,88
955,891	59,26
956,277	59,8
956,664	59,77
957,05	59,65
957,436	59,3
957,822	59,43
958,208	59,04
958,594	59,57
958,979	59,76
959,365	59,54
959,751	59,34
960,136	59,52
960,522	59,43
960,907	59,79
961,292	59,69
961,677	59,02
962,062	58,93
962,447	59,59
962,832	59,35
963,217	59,84
963,602	58,97
963,986	59,12
964,371	59,09
964,756	59,16
965,14	59,37
965,524	59,15
965,908	59,36
966,293	59,44
966,677	59,39
967,061	59,32
967,445	58,76
967,828	59,28
968,212	59,23
968,596	59,57
968,979	58,73
969,363	59,37
969,746	59,18
970,129	59,22
970,513	58,86
970,896	58,82
971,279	59,14
971,662	59
972,045	59,46
972,428	58,54
972,81	59,19
973,193	59,05
973,575	59,89
973,958	59,13
974,34	59,71
974,723	59,39
975,105	59,42
975,487	58,88
975,869	58,73
976,251	59,13
976,633	59,64
977,015	59,2
977,396	59,46
977,778	58,99
978,16	59,26
978,541	59,37
978,922	59,5
979,304	58,93
979,685	59,28
980,066	59,06
980,447	59,52
980,828	59,03
981,209	59,41
981,59	59,78
981,97	59,39
982,351	59,35
982,732	59,73
983,112	59,22
983,493	59,57
983,873	59,35
984,253	59,4
984,633	59,43
985,013	59,32
985,393	59,72
985,773	60,09
986,153	59,53
986,533	59,93
986,912	59,38
987,292	58,95
987,671	59,86
988,051	59,44
988,43	59,82
988,809	59,52
989,188	59,5
989,567	59,45
989,946	59,58
990,325	59,65
990,704	60,35
991,083	60,27
991,461	59,59
991,84	60,38
992,218	59,63
992,597	59,51
992,975	60,22
993,353	59,66
993,732	59,96
994,11	60,62
994,488	59,67
994,866	59,85
995,243	59,95
995,621	59,77
995,999	60,07
996,376	59,88
996,754	60,03
997,131	59,88
997,509	60
997,886	59,74
998,263	59,84
998,64	60,72
999,017	60,77
999,394	60,22
999,771	59,53
1000,148	60,37
1000,524	60,49
1000,901	60,53
1001,277	60,53
1001,654	60,49
1002,03	60,63
1002,406	60,8
1002,783	61,53
1003,159	60,44
1003,535	60,51
1003,911	60,94
1004,286	61,16
1004,662	61,45
1005,038	60,77
1005,414	61,29
1005,789	60,34
1006,164	61,08
1006,54	60,96
1006,915	60,93
1007,29	61,72
1007,665	60,89
1008,04	60,85
1008,415	60,96
1008,79	60,94
1009,165	60,61
1009,54	61,52
1009,914	61,76
1010,289	60,7
1010,663	61,31
1011,038	60,84
1011,412	61,12
1011,786	60,85
1012,16	61,33
1012,535	60,64
1012,909	61,58
1013,282	61,57
1013,656	60,99
1014,03	60,84
1014,404	61,33
1014,777	60,85
1015,151	61,57
1015,524	61,39
1015,897	61,81
1016,271	61,9
1016,644	62,69
1017,017	61,41
1017,39	61,46
1017,763	61,06
1018,136	61,04
1018,508	61,29
1018,881	61,43
1019,254	61,26
1019,626	61,49
1019,999	61,53
1020,371	62,56
1020,743	62,6
1021,116	62,17
1021,488	61,11
1021,86	62,17
1022,232	61,3
1022,604	61,91
1022,975	62,84
1023,347	61,78
1023,719	61,38
1024,09	62,91
1024,462	62,54
1024,833	62,05
1025,204	61,8
1025,576	62,44
1025,947	62,76
1026,318	62,4
1026,689	62,94
1027,06	62,31
1027,431	62,73
1027,801	62,89
1028,172	63,01
1028,543	62,56
1028,913	62,99
1029,284	61,7
1029,654	62,24
1030,024	62,04
1030,394	61,99
1030,764	62,17
1031,135	62,13
1031,504	62,49
1031,874	62,44
1032,244	62,18
1032,614	62,21
1032,983	61,99
1033,353	62,67
1033,722	62,23
1034,092	63,9
1034,461	61,95
1034,83	62,66
1035,2	62,83
1035,569	63,01
1035,938	62,73
1036,307	63,12
1036,675	63,1
1037,044	62,97
1037,413	63,69
1037,781	61,87
1038,15	62,01
1038,518	61,86
1038,887	62,82
1039,255	61,86
1039,623	62,25
1039,991	62,94
1040,359	62,29
1040,727	62,9
1041,095	63,08
1041,463	63,06
1041,831	63,63
1042,198	62,98
1042,566	62,42
1042,933	62,82
1043,301	63,62
1043,668	62,42
1044,035	62,78
1044,402	63,23
1044,77	62,84
1045,137	64,91
1045,503	62,61
1045,87	63,6
1046,237	63,35
1046,604	62,44
1046,97	63,8
1047,337	63,9
1047,703	62,71
1048,07	62,79
1048,436	63,34
1048,802	63,34
1049,168	64,32
1049,534	63,65
1049,9	64,5
1050,266	63,07
1050,632	64,27
1050,998	63,77
1051,364	62,35
1051,729	64
1052,095	64,44
1052,46	63,24
1052,825	63,05
1053,191	63,74
1053,556	63,88
1053,921	64,44
1054,286	62,51
1054,651	63,8
1055,016	63,03
1055,381	63,76
1055,745	64,56
1056,11	64,69
1056,475	63,71
1056,839	63,03
1057,203	63,76
1057,568	63,38
1057,932	64,17
1058,296	62,37
1058,66	64,43
1059,024	64,42
1059,388	62,58
1059,752	64,16
1060,116	65,17
1060,48	63,09
1060,843	63,27
1061,207	64,59
1061,57	63,67
1061,934	65,77
1062,297	63,83
1062,66	63,06
1063,023	63,34
1063,386	65,33
1063,749	64,33
1064,112	64,71
1064,475	64,94
1064,838	63,82
1065,201	64,78
1065,563	64,78
1065,926	63,38
1066,288	64,19
1066,651	63,06
1067,013	64,52
1067,375	63,56
1067,737	63,99
1068,099	65,72
1068,461	63,96
1068,823	64,74
1069,185	63,54
1069,547	62,58
1069,909	65,03
1070,27	63,57
1070,632	64,06
1070,993	62,93
1071,355	64,76
1071,716	64,37
1072,077	63,08
1072,438	64,79
1072,799	62,65
1073,16	65,5
1073,521	63,2
1073,882	65,83
1074,243	65,84
1074,603	63,9
1074,964	66,41
1075,325	65,28
1075,685	64,3
1076,045	65,28
1076,406	64,24
1076,766	64,45
1077,126	64,49
1077,486	64,49
1077,846	65,66
1078,206	64,46
1078,566	64,1
1078,925	63,75
1079,285	65,16
1079,645	64,71
1080,004	65,17
1080,364	62,39
1080,723	63,24
1081,082	63,59
1081,442	63,6
1081,801	64,23
1082,16	63,88
1082,519	64,08
1082,878	64,03
1083,237	64,26
1083,595	63
1083,954	64,81
1084,313	63,53
1084,671	63,69
1085,03	61,99
1085,388	63,24
1085,746	64,32
1086,104	64,67
1086,463	63,64
1086,821	64,95
1087,179	64,56
1087,537	65,51
1087,894	66,79
1088,252	65,94
1088,61	64,04
1088,967	62,24
1089,325	64,84
1089,682	66,87
1090,04	66,23
1090,397	64,52
1090,754	64,78
1091,111	66,64
1091,469	65,17
1091,826	63,29
1092,182	64,45
1092,539	65,79
1092,896	67,45
1093,253	63,96
1093,609	63,69
1093,966	64,18
1094,322	66,92
1094,679	62,64
1095,035	66,33
1095,391	65,89
1095,748	61,34
1096,104	63,29
1096,46	61,02
1096,816	64,59
1097,171	63,68
1097,527	65,5
1097,883	64,13
1098,239	64,39
1098,594	63,95
1098,95	64,62
1099,305	64,38
1099,66	64,77
1100,016	63,36
1100,371	62,24
1100,726	64,14
1101,081	63,4
1101,436	65,52
1101,791	65,36
1102,146	63,4
1102,5	64,55
1102,855	61,79
1103,21	63,13
1103,564	65,14
1103,918	63,07
1104,273	64,6
1104,627	63,32
1104,981	66,02
1105,335	63,97
1105,69	63,28
1106,043	67,26
1106,397	64,74
1106,751	68,88
1107,105	63,37
1107,459	64,3
1107,812	65,15
1108,166	62,03
1108,519	63,94
1108,873	63,88
1109,226	63,56
1109,579	63,97
1109,932	63,96
1110,285	67,18
1110,638	60,07
1110,991	63,93
1111,344	64,02
1111,697	64,88
1112,05	64,88
1112,402	62,77
1112,755	66,2
1113,107	66,67
1113,46	63,99
1113,812	61,02
1114,164	61,11
1114,517	62,15
1114,869	70,09
1115,221	73,68
1115,573	77,88
1115,924	74,79
