Data from F5__Relative__2__00014.txt Node

Date: Fri Feb 02 12:33:45 CET 2024
User: diatiterra
Spectrometer: HDX00911
Trigger mode: 0
Integration Time (sec): 6,000000E-3
Scans to average: 2
Nonlinearity correction enabled: false
Boxcar width: 0
Storing dark spectrum: false
XAxis mode: Wavelengths
Number of Pixels in Spectrum: 2068
>>>>>Begin Spectral Data<<<<<
194,468	92,06
195,025	57,93
195,581	75,47
196,138	62,88
196,694	75,88
197,251	79,1
197,807	77,49
198,363	60,94
198,919	62,66
199,474	64,22
200,03	61,02
200,586	59,31
201,141	56,83
201,696	68,94
202,251	68,34
202,806	61,38
203,361	63,44
203,916	57,4
204,471	65,27
205,025	64,79
205,58	62,24
206,134	59,15
206,688	58,02
207,242	56,48
207,796	58,78
208,35	58,97
208,904	66,36
209,457	63,64
210,011	64,61
210,564	55,66
211,117	63,32
211,67	61,08
212,223	64,19
212,776	63,95
213,329	63,34
213,881	61,41
214,434	61,98
214,986	71,25
215,538	61,24
216,09	64,95
216,642	64,57
217,194	63,11
217,746	55,3
218,297	68,6
218,849	62,3
219,4	57,86
219,951	67,57
220,502	58,25
221,053	66,07
221,604	67,03
222,155	56,45
222,705	62,34
223,256	65,4
223,806	67,43
224,356	73,33
224,906	62,97
225,456	56,15
226,006	62,03
226,556	66,03
227,106	57,59
227,655	58,95
228,204	59,47
228,754	58,04
229,303	58,33
229,852	64,39
230,401	61,83
230,949	58,57
231,498	65,74
232,047	67,57
232,595	59,08
233,143	55,99
233,691	67,63
234,239	66,57
234,787	65,29
235,335	58,17
235,883	66,78
236,43	60,78
236,978	62,17
237,525	66,04
238,072	56,04
238,619	59,38
239,166	63,43
239,713	66,67
240,26	55,9
240,806	63,67
241,353	66,34
241,899	69,23
242,445	66,78
242,991	64,61
243,537	64,91
244,083	56,27
244,629	54,06
245,174	62,18
245,72	68,08
246,265	67,11
246,81	61,39
247,355	63,64
247,9	56,39
248,445	62,9
248,99	69,28
249,534	66,78
250,079	66,12
250,623	64,65
251,168	72,79
251,712	62,66
252,256	61,41
252,8	49,69
253,343	64,35
253,887	51,74
254,43	61,59
254,974	60,86
255,517	58,33
256,06	61
256,603	58,45
257,146	62,75
257,689	61,36
258,232	76,98
258,774	63,36
259,317	62,01
259,859	63,67
260,401	60,86
260,943	66,89
261,485	68,33
262,027	55,48
262,569	55,78
263,11	57,79
263,652	61,43
264,193	65,87
264,734	68,18
265,275	56,06
265,816	68,58
266,357	59,93
266,898	62,75
267,438	61,94
267,979	64,69
268,519	59,42
269,059	61,25
269,6	65
270,14	58,7
270,68	73,94
271,219	63,76
271,759	61,79
272,298	61,02
272,838	63,67
273,377	60,14
273,916	70,99
274,455	63,41
274,994	68,52
275,533	57,24
276,072	68,38
276,61	64,86
277,149	62,9
277,687	61,79
278,225	60,28
278,763	62,28
279,301	60,79
279,839	62,33
280,377	60,55
280,914	66,43
281,452	56,42
281,989	67,3
282,526	65,6
283,064	71,33
283,601	62,42
284,137	64,73
284,674	56,82
285,211	57,75
285,747	61,86
286,284	60,27
286,82	62,12
287,356	62,28
287,892	59,27
288,428	55,99
288,964	63,54
289,5	64,93
290,035	63,18
290,571	61,99
291,106	56,86
291,641	57,48
292,176	51,2
292,711	62,42
293,246	61,46
293,781	57,95
294,315	61,69
294,85	60,98
295,384	56,27
295,918	59,8
296,453	63,54
296,987	53
297,52	66,79
298,054	59,01
298,588	60,62
299,121	61,97
299,655	56,35
300,188	66,43
300,721	56,9
301,254	70,92
301,787	61,46
302,32	65,98
302,853	66,22
303,385	69,42
303,918	63,29
304,45	63,67
304,982	47,87
305,514	64,26
306,046	61,2
306,578	64,66
307,11	75,28
307,641	65,31
308,173	58,03
308,704	65,76
309,236	57,34
309,767	59,59
310,298	54,6
310,829	72,2
311,359	61,11
311,89	57,24
312,421	51,68
312,951	58,99
313,481	67,79
314,012	60,36
314,542	66,55
315,072	57,02
315,601	63,78
316,131	57,39
316,661	60,74
317,19	67,76
317,72	58,5
318,249	60,76
318,778	66,43
319,307	60,12
319,836	66,3
320,365	58,97
320,893	60,42
321,422	56,67
321,95	64,48
322,479	62,02
323,007	62,5
323,535	61,17
324,063	57,83
324,591	66,78
325,118	64,63
325,646	65,83
326,173	59,53
326,701	64,79
327,228	57,95
327,755	64,59
328,282	58,36
328,809	60,76
329,336	56,94
329,862	59,56
330,389	65,46
330,915	67,11
331,441	61,72
331,968	59,06
332,494	56,72
333,02	57,48
333,545	58,72
334,071	55,97
334,597	57,37
335,122	47,47
335,648	55,19
336,173	48,53
336,698	53,65
337,223	55,48
337,748	51,92
338,272	50,62
338,797	59,48
339,322	49,24
339,846	51,79
340,37	55,72
340,894	45,28
341,419	53,5
341,942	49,04
342,466	55,52
342,99	47,56
343,514	47,5
344,037	43,82
344,56	50
345,084	48,6
345,607	45,53
346,13	52,19
346,653	47,41
347,175	43,96
347,698	54,34
348,221	53,35
348,743	43,01
349,265	48
349,787	38,03
350,309	41,57
350,831	42,82
351,353	45,41
351,875	46,23
352,397	42,78
352,918	41,45
353,439	42,72
353,961	42,96
354,482	43,37
355,003	44,81
355,524	39,39
356,044	45,79
356,565	42,54
357,086	43,88
357,606	38,34
358,126	43,19
358,646	41,43
359,167	37,8
359,687	41,05
360,206	37,73
360,726	42,14
361,246	42,62
361,765	42,58
362,285	41,49
362,804	44,14
363,323	38,56
363,842	34,71
364,361	42,08
364,88	39,14
365,398	40,25
365,917	41,22
366,435	38,82
366,954	32,67
367,472	39,17
367,99	39,07
368,508	39,85
369,026	32,2
369,544	36,62
370,061	36,83
370,579	32,19
371,096	30,74
371,613	34,38
372,131	31,31
372,648	33,45
373,165	33,89
373,681	31,94
374,198	30,03
374,715	31,44
375,231	35,43
375,747	31,44
376,264	29,77
376,78	31,12
377,296	28,32
377,812	27,36
378,327	30,31
378,843	31,84
379,359	30,34
379,874	26,53
380,389	30,63
380,905	29,59
381,42	23,92
381,935	24,94
382,449	27,93
382,964	24,02
383,479	24,91
383,993	24,11
384,508	23,78
385,022	22,63
385,536	22,92
386,05	22,7
386,564	23,24
387,078	23,33
387,592	22,63
388,105	22,67
388,619	22,68
389,132	22,39
389,645	20,95
390,158	20,07
390,671	22,04
391,184	21,61
391,697	19,52
392,21	20,88
392,722	22,75
393,235	19,49
393,747	20,97
394,259	19,4
394,771	19,94
395,283	19,21
395,795	21,28
396,307	18,78
396,818	16,41
397,33	18,14
397,841	18,42
398,353	18,01
398,864	17,78
399,375	14,91
399,886	16,21
400,397	15,56
400,907	15,72
401,418	16,04
401,928	13,43
402,439	15,81
402,949	15,39
403,459	14,87
403,969	13,21
404,479	13,73
404,989	13,37
405,498	12,82
406,008	13,07
406,517	13,05
407,027	12,46
407,536	13,55
408,045	11,51
408,554	10,79
409,063	10,36
409,572	10,62
410,08	10,41
410,589	9,08
411,097	9,34
411,606	8,38
412,114	9,29
412,622	8,46
413,13	9,03
413,638	8,26
414,145	7,86
414,653	7,71
415,16	7,38
415,668	7,06
416,175	7,32
416,682	6,78
417,189	6,82
417,696	7,31
418,203	6,85
418,71	7,03
419,216	6,29
419,723	6,39
420,229	5,99
420,735	6,66
421,242	5,95
421,748	6,64
422,254	5,69
422,759	6,22
423,265	6,05
423,771	6,19
424,276	5,84
424,781	5,67
425,287	5,79
425,792	5,84
426,297	5,41
426,802	5,65
427,306	6,02
427,811	5,76
428,316	5,85
428,82	5,48
429,324	5,84
429,829	5,48
430,333	5,72
430,837	5,09
431,34	5,45
431,844	5,39
432,348	5,38
432,851	5,16
433,355	5,11
433,858	5,07
434,361	5,07
434,864	5,41
435,367	5,05
435,87	4,95
436,373	5,11
436,876	5
437,378	5,26
437,88	4,76
438,383	5,06
438,885	5,05
439,387	5,01
439,889	5,16
440,391	4,87
440,892	4,63
441,394	5,01
441,896	5,07
442,397	5,14
442,898	4,82
443,399	4,9
443,9	4,77
444,401	5,13
444,902	4,96
445,403	5
445,903	5,11
446,404	4,78
446,904	4,92
447,405	4,9
447,905	5,02
448,405	5,03
448,905	4,62
449,404	5,03
449,904	5
450,404	5,02
450,903	4,86
451,403	5,05
451,902	5,12
452,401	4,93
452,9	5,02
453,399	4,92
453,898	5,11
454,396	5,17
454,895	5
455,393	5,12
455,892	5,3
456,39	4,99
456,888	5,22
457,386	4,68
457,884	4,89
458,382	5,49
458,879	5,01
459,377	5,2
459,874	5,09
460,372	4,88
460,869	4,96
461,366	4,97
461,863	4,91
462,36	5,13
462,857	5,25
463,353	5,05
463,85	5,14
464,346	5,05
464,843	4,71
465,339	5
465,835	5,11
466,331	4,96
466,827	4,88
467,323	5,09
467,818	4,79
468,314	4,72
468,809	5,1
469,305	4,87
469,8	5,12
470,295	4,92
470,79	4,84
471,285	4,76
471,78	4,8
472,274	4,91
472,769	4,92
473,263	4,88
473,758	5,07
474,252	5,02
474,746	4,93
475,24	4,8
475,734	4,99
476,228	4,97
476,721	4,84
477,215	4,94
477,708	5,15
478,202	5,01
478,695	5,21
479,188	4,78
479,681	5,12
480,174	4,92
480,667	4,95
481,159	5,15
481,652	5,03
482,144	5,1
482,637	5,04
483,129	5,06
483,621	5,13
484,113	5,06
484,605	5,14
485,097	4,96
485,588	5,14
486,08	4,87
486,571	4,94
487,063	5,12
487,554	5,13
488,045	5,05
488,536	5,24
489,027	5,16
489,518	5,29
490,008	5,32
490,499	5,07
490,989	5,32
491,48	5,22
491,97	5,28
492,46	5,24
492,95	5,25
493,44	5,34
493,93	5,47
494,419	5,32
494,909	5,25
495,398	5,26
495,888	5,7
496,377	5,67
496,866	5,72
497,355	5,36
497,844	5,49
498,333	5,59
498,821	5,71
499,31	5,64
499,798	5,64
500,287	5,79
500,775	5,9
501,263	5,97
501,751	5,97
502,239	5,94
502,727	6
503,215	6,37
503,702	6,36
504,19	6,45
504,677	6,52
505,164	6,63
505,651	6,68
506,139	6,88
506,625	6,89
507,112	6,86
507,599	7,08
508,086	7,1
508,572	7,49
509,058	7,54
509,545	7,35
510,031	7,7
510,517	7,77
511,003	8,02
511,489	8,15
511,974	8,27
512,46	8,45
512,946	8,75
513,431	8,83
513,916	8,88
514,401	9,3
514,887	9,51
515,371	9,6
515,856	9,89
516,341	9,96
516,826	10,02
517,31	10,59
517,795	10,25
518,279	10,82
518,763	11,09
519,247	11,14
519,731	11,41
520,215	11,91
520,699	11,86
521,182	12,34
521,666	12,51
522,149	12,76
522,633	13,21
523,116	12,91
523,599	13,46
524,082	13,62
524,565	13,83
525,048	14,26
525,53	14,77
526,013	14,81
526,495	15,1
526,978	15,18
527,46	15,29
527,942	15,73
528,424	15,79
528,906	15,87
529,388	16,15
529,87	16,5
530,351	16,82
530,833	16,64
531,314	17,09
531,795	17,1
532,277	17,38
532,758	17,57
533,238	17,64
533,719	17,74
534,2	17,64
534,681	17,96
535,161	17,86
535,642	18,17
536,122	18,46
536,602	18,32
537,082	18,55
537,562	18,44
538,042	18,44
538,522	18,64
539,001	18,84
539,481	18,6
539,96	18,69
540,44	19,03
540,919	19,13
541,398	18,8
541,877	19,52
542,356	19,02
542,835	18,99
543,313	19,22
543,792	19,38
544,27	19,24
544,749	19,29
545,227	19,2
545,705	19,17
546,183	19,21
546,661	19,42
547,139	19,63
547,616	19,68
548,094	19,4
548,571	19,69
549,049	19,9
549,526	19,92
550,003	19,61
550,48	19,89
550,957	19,71
551,434	19,83
551,911	19,58
552,387	20,07
552,864	19,87
553,34	19,92
553,817	19,85
554,293	19,91
554,769	19,87
555,245	19,87
555,721	19,85
556,197	19,71
556,672	19,84
557,148	20,06
557,623	19,75
558,099	19,62
558,574	19,72
559,049	19,61
559,524	19,43
559,999	19,76
560,474	19,52
560,948	19,43
561,423	19,47
561,897	19,1
562,372	19,18
562,846	19,01
563,32	18,83
563,794	18,89
564,268	18,41
564,742	18,58
565,216	18,47
565,69	18,23
566,163	18,23
566,636	17,69
567,11	17,93
567,583	17,48
568,056	17,5
568,529	17,29
569,002	17,28
569,475	17
569,947	16,81
570,42	16,63
570,892	16,64
571,365	16,62
571,837	16,19
572,309	16,1
572,781	16,08
573,253	15,73
573,725	15,89
574,197	15,46
574,668	15,08
575,14	15,16
575,611	15
576,082	15
576,554	14,96
577,025	14,62
577,496	14,55
577,967	14,57
578,437	14,28
578,908	14,35
579,379	14,19
579,849	14,09
580,319	13,96
580,79	13,85
581,26	13,83
581,73	13,72
582,2	13,73
582,669	13,29
583,139	13,34
583,609	13,29
584,078	13,3
584,548	13,08
585,017	12,95
585,486	12,97
585,955	12,77
586,424	12,7
586,893	12,64
587,362	12,6
587,83	12,45
588,299	12,4
588,767	12,58
589,236	12,41
589,704	12,51
590,172	12,37
590,64	12,27
591,108	12,27
591,576	12,07
592,043	12,13
592,511	12,13
592,978	11,9
593,446	11,94
593,913	11,76
594,38	11,85
594,847	11,82
595,314	11,88
595,781	11,88
596,248	11,72
596,715	11,67
597,181	11,55
597,647	11,48
598,114	11,59
598,58	11,49
599,046	11,64
599,512	11,57
599,978	11,42
600,444	11,52
600,91	11,56
601,375	11,24
601,841	11,38
602,306	11,32
602,771	11,29
603,236	11,26
603,702	11,22
604,167	11,07
604,631	11,27
605,096	10,94
605,561	10,92
606,025	10,95
606,49	11,12
606,954	10,97
607,418	10,83
607,882	10,68
608,347	10,64
608,81	10,59
609,274	10,69
609,738	10,63
610,202	10,53
610,665	10,47
611,128	10,24
611,592	10,12
612,055	10,29
612,518	10,18
612,981	9,97
613,444	10,22
613,907	9,92
614,369	9,98
614,832	10,01
615,294	9,77
615,757	9,7
616,219	9,64
616,681	9,57
617,143	9,57
617,605	9,36
618,067	9,4
618,529	9,36
618,99	9,3
619,452	9,32
619,913	9,25
620,375	9,26
620,836	9,28
621,297	9,14
621,758	9,08
622,219	8,98
622,68	9
623,14	8,92
623,601	8,97
624,061	9,03
624,522	8,97
624,982	8,87
625,442	8,86
625,902	8,91
626,362	8,79
626,822	8,85
627,282	8,8
627,742	8,84
628,201	8,78
628,661	8,76
629,12	8,74
629,579	8,66
630,038	8,78
630,497	8,66
630,956	8,6
631,415	8,78
631,874	8,79
632,332	8,53
632,791	8,47
633,249	8,57
633,708	8,55
634,166	8,43
634,624	8,38
635,082	8,41
635,54	8,29
635,998	8,36
636,455	8,32
636,913	8,2
637,37	8,15
637,828	8,1
638,285	8,01
638,742	7,87
639,199	7,8
639,656	7,68
640,113	7,73
640,57	7,54
641,027	7,59
641,483	7,49
641,94	7,38
642,396	7,32
642,852	7,26
643,309	7,18
643,765	7,07
644,221	7,06
644,676	6,92
645,132	6,9
645,588	6,87
646,043	6,86
646,499	6,7
646,954	6,61
647,409	6,52
647,864	6,46
648,319	6,48
648,774	6,45
649,229	6,37
649,684	6,41
650,139	6,36
650,593	6,16
651,047	6,19
651,502	6,17
651,956	6,08
652,41	6,11
652,864	6,1
653,318	6,11
653,772	6,09
654,225	6,13
654,679	6,08
655,133	6,09
655,586	5,96
656,039	6,04
656,492	5,99
656,946	5,96
657,399	5,95
657,851	5,91
658,304	5,91
658,757	5,84
659,209	5,84
659,662	5,75
660,114	5,66
660,567	5,73
661,019	5,74
661,471	5,6
661,923	5,65
662,375	5,63
662,826	5,58
663,278	5,59
663,73	5,52
664,181	5,65
664,632	5,5
665,084	5,49
665,535	5,44
665,986	5,57
666,437	5,46
666,888	5,57
667,338	5,55
667,789	5,53
668,24	5,53
668,69	5,53
669,14	5,52
669,591	5,48
670,041	5,58
670,491	5,63
670,941	5,68
671,391	5,67
671,84	5,67
672,29	5,72
672,74	5,83
673,189	5,83
673,638	5,9
674,088	6,08
674,537	5,98
674,986	6,11
675,435	6,24
675,883	6,23
676,332	6,27
676,781	6,46
677,229	6,44
677,678	6,56
678,126	6,73
678,574	6,68
679,022	6,88
679,47	6,77
679,918	6,97
680,366	7,04
680,814	7,13
681,261	7,3
681,709	7,37
682,156	7,46
682,604	7,55
683,051	7,68
683,498	7,76
683,945	7,7
684,392	7,81
684,839	8,02
685,286	8,11
685,732	7,99
686,179	8,18
686,625	8,36
687,071	8,33
687,518	8,31
687,964	8,55
688,41	8,6
688,856	8,75
689,301	8,94
689,747	9,01
690,193	9,26
690,638	9,45
691,084	9,54
691,529	9,88
691,974	10,1
692,419	10,35
692,864	10,64
693,309	10,96
693,754	11,23
694,199	11,66
694,643	12,08
695,088	12,51
695,532	12,89
695,977	13,22
696,421	13,61
696,865	14,05
697,309	14,75
697,753	15,08
698,197	15,65
698,64	16,15
699,084	16,56
699,527	17,09
699,971	17,77
700,414	18,33
700,857	18,97
701,3	19,32
701,743	20,05
702,186	20,62
702,629	21,2
703,072	21,55
703,515	22,23
703,957	22,76
704,399	23,5
704,842	24,05
705,284	24,67
705,726	25,29
706,168	25,87
706,61	26,28
707,052	26,98
707,494	27,67
707,935	28,41
708,377	28,68
708,818	29,48
709,26	30,05
709,701	30,75
710,142	31,59
710,583	31,76
711,024	32,43
711,465	33,36
711,905	33,86
712,346	34,26
712,787	35,08
713,227	35,59
713,667	36,2
714,108	37,12
714,548	37,64
714,988	38,37
715,428	39,11
715,868	39,76
716,307	40,49
716,747	41,26
717,186	41,59
717,626	42,34
718,065	42,85
718,504	43,57
718,944	44,32
719,383	44,55
719,822	45,12
720,261	45,98
720,699	46,34
721,138	47,55
721,576	47,84
722,015	48,33
722,453	49,1
722,892	49,72
723,33	50,14
723,768	50,78
724,206	51,4
724,644	51,72
725,081	52,7
725,519	52,8
725,957	53,64
726,394	54,12
726,832	54,72
727,269	54,97
727,706	55,38
728,143	56,15
728,58	56,47
729,017	57,42
729,454	57,2
729,89	58,02
730,327	58,83
730,764	58,48
731,2	59,41
731,636	59,55
732,072	60,17
732,509	60,36
732,945	61,1
733,38	61,08
733,816	61,44
734,252	61,87
734,688	61,99
735,123	62,85
735,559	63,06
735,994	63,35
736,429	63,26
736,864	63,57
737,299	64,13
737,734	64,06
738,169	64,36
738,604	64,88
739,038	65,13
739,473	65,38
739,907	65,54
740,342	65,57
740,776	65,92
741,21	65,85
741,644	65,99
742,078	65,79
742,512	66,57
742,946	66,78
743,379	67,02
743,813	66,8
744,246	66,8
744,68	67,15
745,113	67,04
745,546	67,47
745,979	67,61
746,412	67,41
746,845	67,95
747,278	67,82
747,711	67,57
748,143	67,73
748,576	67,95
749,008	67,98
749,441	68,07
749,873	68,13
750,305	67,84
750,737	67,89
751,169	67,58
751,601	68,13
752,032	68,06
752,464	68,06
752,896	68,27
753,327	67,95
753,758	68,04
754,19	67,99
754,621	68,12
755,052	68,39
755,483	68,24
755,914	67,82
756,344	68,19
756,775	68,5
757,206	67,81
757,636	67,9
758,066	68,3
758,497	68,15
758,927	68,3
759,357	68,6
759,787	68,18
760,217	68,15
760,647	68,28
761,076	68,23
761,506	67,99
761,935	68,05
762,365	68,16
762,794	68,24
763,223	68,01
763,653	67,73
764,082	68,11
764,51	67,93
764,939	67,79
765,368	68
765,797	67,86
766,225	67,77
766,654	67,44
767,082	67,87
767,51	67,89
767,938	67,84
768,367	67,76
768,795	67,69
769,222	67,66
769,65	67,64
770,078	67,65
770,505	67,24
770,933	67,67
771,36	67,62
771,788	67,69
772,215	67,7
772,642	67,67
773,069	67,22
773,496	67,2
773,923	67,13
774,349	67,36
774,776	67,7
775,203	67,36
775,629	67,24
776,055	67,32
776,482	67,57
776,908	67,22
777,334	67,18
777,76	67,41
778,186	67,06
778,611	67,45
779,037	67,33
779,463	66,82
779,888	67,1
780,314	67,39
780,739	66,91
781,164	66,81
781,589	66,95
782,014	67,13
782,439	66,95
782,864	66,82
783,289	66,86
783,713	67,29
784,138	67,05
784,562	67,39
784,987	66,73
785,411	67,22
785,835	66,52
786,259	66,67
786,683	66,79
787,107	66,92
787,531	67
787,954	66,98
788,378	66,77
788,802	67,24
789,225	66,74
789,648	66,83
790,071	66,98
790,495	67,06
790,918	66,83
791,34	67,23
791,763	66,97
792,186	66,92
792,609	66,93
793,031	66,79
793,454	66,79
793,876	67,02
794,298	67,19
794,721	67,07
795,143	66,63
795,565	66,55
795,986	66,82
796,408	66,77
796,83	66,72
797,252	66,91
797,673	66,63
798,094	67
798,516	66,3
798,937	66,9
799,358	66,75
799,779	66,67
800,2	66,44
800,621	67,27
801,042	66,41
801,462	66,8
801,883	66,66
802,303	66,59
802,724	66,54
803,144	66,96
803,564	66,62
803,984	66,78
804,404	66,87
804,824	66,76
805,244	66,78
805,664	66,79
806,084	66,68
806,503	66,61
806,923	66,5
807,342	66,54
807,761	66,51
808,18	66,74
808,599	66,51
809,018	66,16
809,437	66,52
809,856	66,43
810,275	66,44
810,693	66,63
811,112	66,6
811,53	66,8
811,949	66,58
812,367	66,53
812,785	66,62
813,203	66,66
813,621	66,2
814,039	66,17
814,457	66,8
814,874	66,68
815,292	66,92
815,709	66,67
816,127	66,18
816,544	66,36
816,961	66,67
817,378	66,16
817,795	66,53
818,212	66,15
818,629	66,34
819,046	66,44
819,462	66,08
819,879	66,23
820,295	65,91
820,712	66,69
821,128	66,16
821,544	66,04
821,96	66,46
822,376	66,47
822,792	66,28
823,208	66,39
823,624	66,49
824,039	66,57
824,455	66,41
824,87	66,55
825,286	66,29
825,701	66,59
826,116	66,22
826,531	66,27
826,946	66,21
827,361	66,53
827,776	66,78
828,19	66,4
828,605	66,28
829,02	66,3
829,434	66,3
829,848	66,35
830,263	66,5
830,677	66,29
831,091	66,2
831,505	66,32
831,919	66,28
832,332	66,4
832,746	65,84
833,16	66,22
833,573	66,24
833,987	65,89
834,4	66,43
834,813	66,6
835,226	66,31
835,639	66,4
836,052	66,22
836,465	66,46
836,878	65,93
837,29	66,29
837,703	66,15
838,116	66,18
838,528	65,92
838,94	66,45
839,352	66,1
839,765	66,06
840,177	66,27
840,589	65,78
841	65,77
841,412	66,46
841,824	65,91
842,235	65,83
842,647	65,94
843,058	66,42
843,47	65,89
843,881	66,16
844,292	66,03
844,703	65,88
845,114	66,03
845,525	65,87
845,935	66,25
846,346	66,1
846,757	66,48
847,167	65,76
847,577	66,41
847,988	66,03
848,398	66,29
848,808	66,12
849,218	66,17
849,628	66,01
850,038	66,01
850,448	65,88
850,857	66,29
851,267	66,04
851,676	66,28
852,086	66,03
852,495	65,88
852,904	65,77
853,313	66,16
853,722	65,99
854,131	66,14
854,54	66,13
854,949	66,07
855,357	65,99
855,766	66,08
856,174	65,68
856,583	66,22
856,991	66,06
857,399	65,95
857,807	66,1
858,215	66,11
858,623	66,11
859,031	66,03
859,439	66,08
859,846	65,62
860,254	66,22
860,661	66,23
861,069	65,86
861,476	65,87
861,883	66,07
862,29	65,97
862,697	66,04
863,104	65,83
863,511	66,19
863,918	66,22
864,325	65,86
864,731	66,05
865,138	66,03
865,544	65,89
865,95	66,25
866,357	65,7
866,763	66,22
867,169	66,2
867,575	65,89
867,98	66,12
868,386	66,02
868,792	65,77
869,197	65,95
869,603	65,84
870,008	65,82
870,414	65,82
870,819	65,86
871,224	66,28
871,629	65,79
872,034	65,9
872,439	66,03
872,844	66,36
873,248	65,59
873,653	65,73
874,057	65,76
874,462	65,71
874,866	66,26
875,27	66,39
875,674	65,89
876,078	66
876,482	65,77
876,886	66,53
877,29	66,11
877,694	65,61
878,097	65,88
878,501	66,15
878,904	65,76
879,308	65,8
879,711	65,96
880,114	65,83
880,517	66,08
880,92	66,66
881,323	65,84
881,726	65,79
882,128	66,11
882,531	65,83
882,934	66,06
883,336	65,8
883,738	65,65
884,141	66,25
884,543	66,19
884,945	65,97
885,347	66,09
885,749	65,66
886,151	66,2
886,552	65,85
886,954	65,46
887,355	65,61
887,757	65,96
888,158	65,94
888,56	66,18
888,961	65,93
889,362	65,83
889,763	66,04
890,164	65,93
890,565	65,9
890,965	65,79
891,366	65,42
891,767	65,9
892,167	65,69
892,567	65,95
892,968	65,74
893,368	65,92
893,768	65,43
894,168	65,76
894,568	65,59
894,968	66,02
895,368	65,85
895,767	66
896,167	65,91
896,566	66,06
896,966	65,8
897,365	65,94
897,764	65,87
898,164	66,16
898,563	66,23
898,962	66,08
899,361	65,83
899,759	65,85
900,158	66,04
900,557	65,84
900,955	65,56
901,354	65,99
901,752	65,6
902,15	66,09
902,548	66,01
902,947	66,35
903,345	65,92
903,742	65,75
904,14	65,82
904,538	65,99
904,936	65,87
905,333	65,76
905,731	65,32
906,128	66,27
906,525	65,74
906,923	65,45
907,32	66,29
907,717	65,29
908,114	65,9
908,511	66,22
908,907	66,03
909,304	65,97
909,701	66,08
910,097	65,88
910,494	65,7
910,89	66,62
911,286	65,78
911,682	65,83
912,078	65,76
912,474	65,43
912,87	65,92
913,266	65,77
913,662	66,05
914,058	66,03
914,453	66,2
914,849	65,94
915,244	66,73
915,639	66,06
916,034	65,87
916,43	65,46
916,825	65,36
917,22	65,61
917,614	65,81
918,009	65,92
918,404	65,55
918,798	66,2
919,193	65,69
919,587	65,96
919,982	65,83
920,376	65,41
920,77	65,78
921,164	65,87
921,558	65,48
921,952	65,91
922,346	66,34
922,74	65,69
923,133	65,63
923,527	65,2
923,92	65,38
924,314	65,31
924,707	65,4
925,1	65,82
925,493	65,99
925,886	65,5
926,279	65,7
926,672	65,29
927,065	65,74
927,457	65,26
927,85	65,37
928,243	65,74
928,635	65,63
929,027	65,14
929,42	66,02
929,812	65,69
930,204	65,06
930,596	65,05
930,988	65,97
931,379	65,39
931,771	65,39
932,163	65,54
932,554	65,34
932,946	65,52
933,337	65,72
933,729	65,04
934,12	65,11
934,511	65,11
934,902	64,95
935,293	65,22
935,684	65,33
936,075	65,32
936,465	65,66
936,856	64,89
937,246	65,01
937,637	64,97
938,027	65,88
938,417	65,22
938,808	65,24
939,198	65,33
939,588	65,02
939,978	64,81
940,368	64,13
940,757	65,47
941,147	64,74
941,537	65,65
941,926	65,2
942,315	65,18
942,705	65,21
943,094	64,68
943,483	65,07
943,872	65,42
944,261	64,62
944,65	64,87
945,039	63,61
945,428	64,72
945,816	65,11
946,205	65,14
946,593	64,38
946,982	64,22
947,37	64,9
947,758	65,35
948,146	65,41
948,534	64,32
948,922	64,16
949,31	64,37
949,698	64,16
950,086	63,95
950,473	64,25
950,861	63,65
951,248	64,67
951,636	64,95
952,023	63,83
952,41	64,63
952,797	64,2
953,184	64,26
953,571	63,95
953,958	64
954,345	64,36
954,731	63,97
955,118	63,84
955,505	63,71
955,891	63,74
956,277	64,12
956,664	63,6
957,05	63,07
957,436	62,95
957,822	63,82
958,208	63,99
958,594	63,05
958,979	63,48
959,365	62,9
959,751	63,52
960,136	64,12
960,522	63,66
960,907	63,7
961,292	63,81
961,677	62,97
962,062	63,53
962,447	63,25
962,832	63,62
963,217	63,53
963,602	62,76
963,986	63,55
964,371	62,9
964,756	63,73
965,14	63
965,524	63,39
965,908	63,27
966,293	63,56
966,677	63,14
967,061	63,78
967,445	62,88
967,828	64,09
968,212	63,47
968,596	63,39
968,979	63,83
969,363	63,09
969,746	63,36
970,129	63,74
970,513	62,91
970,896	63,1
971,279	63,05
971,662	63,58
972,045	63,15
972,428	63,25
972,81	63,04
973,193	63,92
973,575	63,45
973,958	63,61
974,34	63,44
974,723	63,05
975,105	63,64
975,487	63,31
975,869	62,99
976,251	63,1
976,633	63,87
977,015	63,2
977,396	63,61
977,778	63,5
978,16	63,24
978,541	63,12
978,922	63,51
979,304	63,22
979,685	63,34
980,066	62,95
980,447	63,9
980,828	62,89
981,209	63,25
981,59	63,84
981,97	63,35
982,351	63,08
982,732	63,51
983,112	63,39
983,493	63,21
983,873	62,84
984,253	63,94
984,633	62,94
985,013	63,47
985,393	63,67
985,773	63,51
986,153	63,42
986,533	63,45
986,912	63,48
987,292	63,15
987,671	63,13
988,051	63,2
988,43	63,12
988,809	63,49
989,188	63,43
989,567	63,78
989,946	63,31
990,325	63,91
990,704	63,11
991,083	63,46
991,461	63,3
991,84	63,99
992,218	63,33
992,597	62,87
992,975	63,57
993,353	63,54
993,732	63,72
994,11	64,42
994,488	63,79
994,866	63,82
995,243	63,44
995,621	64,09
995,999	63,31
996,376	64,16
996,754	63,38
997,131	63,77
997,509	63,55
997,886	63,28
998,263	63,28
998,64	64,36
999,017	63,92
999,394	64,05
999,771	63,86
1000,148	63,22
1000,524	63,98
1000,901	63,5
1001,277	63,66
1001,654	63,78
1002,03	63,7
1002,406	63,7
1002,783	64,39
1003,159	63,45
1003,535	63,66
1003,911	63,94
1004,286	64,63
1004,662	64,61
1005,038	63,86
1005,414	65,01
1005,789	64,69
1006,164	64,5
1006,54	64,73
1006,915	63,93
1007,29	64,45
1007,665	63,8
1008,04	63,85
1008,415	64,23
1008,79	63,46
1009,165	64,16
1009,54	64,15
1009,914	64,16
1010,289	63,34
1010,663	64,09
1011,038	63,88
1011,412	64,44
1011,786	64,1
1012,16	64,9
1012,535	63,77
1012,909	64,41
1013,282	64,9
1013,656	64,65
1014,03	63,65
1014,404	65,18
1014,777	64,29
1015,151	64,6
1015,524	64,39
1015,897	64,2
1016,271	64,82
1016,644	65,51
1017,017	65,27
1017,39	63,56
1017,763	64,33
1018,136	64,18
1018,508	64,14
1018,881	64,25
1019,254	64,04
1019,626	65,02
1019,999	64,7
1020,371	66,04
1020,743	64,8
1021,116	65,14
1021,488	64,35
1021,86	64,91
1022,232	64,5
1022,604	64,01
1022,975	65,49
1023,347	64,77
1023,719	63,85
1024,09	65,18
1024,462	64,85
1024,833	64,44
1025,204	64,68
1025,576	65,76
1025,947	64,76
1026,318	65,08
1026,689	64,18
1027,06	64,64
1027,431	65,78
1027,801	64,85
1028,172	64,88
1028,543	65,27
1028,913	65,1
1029,284	64,75
1029,654	64,38
1030,024	64,83
1030,394	63,79
1030,764	64,68
1031,135	64,56
1031,504	65,06
1031,874	64,91
1032,244	64,52
1032,614	64,19
1032,983	64,66
1033,353	64,93
1033,722	65,13
1034,092	65,32
1034,461	65,78
1034,83	65,16
1035,2	66,3
1035,569	65,93
1035,938	65,08
1036,307	65,9
1036,675	65,06
1037,044	65,42
1037,413	65,98
1037,781	66,01
1038,15	64,57
1038,518	65,37
1038,887	65,21
1039,255	65,29
1039,623	65,02
1039,991	65,17
1040,359	65,23
1040,727	65,73
1041,095	64,78
1041,463	66,28
1041,831	65,56
1042,198	65,47
1042,566	64,58
1042,933	65,37
1043,301	65,74
1043,668	65,31
1044,035	65,06
1044,402	65,43
1044,77	65,44
1045,137	65,83
1045,503	65,03
1045,87	64,82
1046,237	65,4
1046,604	65,64
1046,97	65,77
1047,337	65,08
1047,703	65,77
1048,07	66,06
1048,436	64,83
1048,802	65,02
1049,168	66,51
1049,534	65,84
1049,9	65,64
1050,266	65,57
1050,632	66,54
1050,998	65,05
1051,364	65,6
1051,729	66,15
1052,095	65,5
1052,46	65,37
1052,825	66,06
1053,191	64,88
1053,556	65,16
1053,921	65,87
1054,286	64,52
1054,651	66,18
1055,016	64,99
1055,381	65,53
1055,745	66,52
1056,11	66,56
1056,475	65,11
1056,839	65,28
1057,203	65,92
1057,568	65,64
1057,932	65,32
1058,296	65,54
1058,66	66,41
1059,024	66,33
1059,388	64,69
1059,752	64,98
1060,116	67,89
1060,48	64,75
1060,843	65,48
1061,207	65,73
1061,57	64,79
1061,934	68,18
1062,297	65,94
1062,66	65,15
1063,023	64,19
1063,386	66,53
1063,749	66,13
1064,112	66,75
1064,475	65,67
1064,838	65,25
1065,201	64,9
1065,563	66,3
1065,926	65,55
1066,288	65,8
1066,651	65,85
1067,013	67,52
1067,375	65,37
1067,737	66,9
1068,099	66,08
1068,461	67,17
1068,823	65,17
1069,185	66,02
1069,547	63,67
1069,909	66,29
1070,27	65,72
1070,632	65,79
1070,993	65,89
1071,355	66,57
1071,716	66,22
1072,077	65,72
1072,438	67,1
1072,799	65,61
1073,16	65,78
1073,521	66,11
1073,882	66,77
1074,243	67,62
1074,603	66,12
1074,964	67,76
1075,325	67,26
1075,685	66
1076,045	66,1
1076,406	65,14
1076,766	65,66
1077,126	66,47
1077,486	65,7
1077,846	64,91
1078,206	67,42
1078,566	65,56
1078,925	66,19
1079,285	65,93
1079,645	65,48
1080,004	67,96
1080,364	63,82
1080,723	66,72
1081,082	64,99
1081,442	66,06
1081,801	67,35
1082,16	65,37
1082,519	64,53
1082,878	65,28
1083,237	64,97
1083,595	65,57
1083,954	66,94
1084,313	63,95
1084,671	64,56
1085,03	62,9
1085,388	67,86
1085,746	64,84
1086,104	66,3
1086,463	64,9
1086,821	66,69
1087,179	64,59
1087,537	67,14
1087,894	68,49
1088,252	65,58
1088,61	67,31
1088,967	63,1
1089,325	65,62
1089,682	67,6
1090,04	65,28
1090,397	66,16
1090,754	66,28
1091,111	68,46
1091,469	66,7
1091,826	66,09
1092,182	65,81
1092,539	65,93
1092,896	67,28
1093,253	67,15
1093,609	64,94
1093,966	66,13
1094,322	68,04
1094,679	64,09
1095,035	67,08
1095,391	68,75
1095,748	65,38
1096,104	66,08
1096,46	65,26
1096,816	64,97
1097,171	65,44
1097,527	65,7
1097,883	65,03
1098,239	65,71
1098,594	62,95
1098,95	65,5
1099,305	68,49
1099,66	66,16
1100,016	64,78
1100,371	63,4
1100,726	65,11
1101,081	66,91
1101,436	66,56
1101,791	66,3
1102,146	65,95
1102,5	66,73
1102,855	65,46
1103,21	66,67
1103,564	67,5
1103,918	70,79
1104,273	65,56
1104,627	65,73
1104,981	65,97
1105,335	65,33
1105,69	64,96
1106,043	69,95
1106,397	65,69
1106,751	67,84
1107,105	65,8
1107,459	64,46
1107,812	67,06
1108,166	66,92
1108,519	63,32
1108,873	65,94
1109,226	65,79
1109,579	65,24
1109,932	66,69
1110,285	65,9
1110,638	63,36
1110,991	63,28
1111,344	66,93
1111,697	66,76
1112,05	67,01
1112,402	68,01
1112,755	66,72
1113,107	69,02
1113,46	66,35
1113,812	64,02
1114,164	63,79
1114,517	67,32
1114,869	75,7
1115,221	77,19
1115,573	86,54
1115,924	84,03
