Data from G2__Relative__2__00018.txt Node

Date: Fri Feb 02 12:34:21 CET 2024
User: diatiterra
Spectrometer: HDX00911
Trigger mode: 0
Integration Time (sec): 6,000000E-3
Scans to average: 2
Nonlinearity correction enabled: false
Boxcar width: 0
Storing dark spectrum: false
XAxis mode: Wavelengths
Number of Pixels in Spectrum: 2068
>>>>>Begin Spectral Data<<<<<
194,468	102,38
195,025	73,1
195,581	88,68
196,138	77,27
196,694	82,91
197,251	76,23
197,807	79,7
198,363	63,12
198,919	63,29
199,474	70,93
200,03	66,45
200,586	66,88
201,141	61,27
201,696	72,36
202,251	67,71
202,806	61,67
203,361	68,12
203,916	65,68
204,471	75,24
205,025	62,43
205,58	66,77
206,134	67,38
206,688	66,55
207,242	65,74
207,796	72,3
208,35	70,21
208,904	67,28
209,457	66,88
210,011	68,18
210,564	70,55
211,117	69,91
211,67	65,57
212,223	61,29
212,776	68,03
213,329	66,24
213,881	68,46
214,434	61,38
214,986	71,25
215,538	64,5
216,09	58,08
216,642	64,24
217,194	65,85
217,746	67,22
218,297	71,33
218,849	63,61
219,4	66,79
219,951	64,86
220,502	66,33
221,053	76,43
221,604	71,79
222,155	62,9
222,705	67,72
223,256	73,36
223,806	67,1
224,356	77,54
224,906	65,82
225,456	66,11
226,006	66,46
226,556	71,47
227,106	68,11
227,655	66,98
228,204	60,95
228,754	67,51
229,303	65,67
229,852	74,82
230,401	62,78
230,949	71,96
231,498	70,93
232,047	82,43
232,595	69,97
233,143	61,98
233,691	60,58
234,239	58,36
234,787	76,98
235,335	65,03
235,883	75,43
236,43	66,99
236,978	73,36
237,525	67,92
238,072	65,63
238,619	65
239,166	66,02
239,713	70,14
240,26	64,6
240,806	63,67
241,353	69,64
241,899	66,03
242,445	70,55
242,991	69,81
243,537	64,21
244,083	64,63
244,629	63,12
245,174	67,95
245,72	68,08
246,265	74,5
246,81	74,59
247,355	59,6
247,9	68,52
248,445	62,58
248,99	70,92
249,534	72,6
250,079	73,36
250,623	69,02
251,168	64,63
251,712	66,56
252,256	70,13
252,8	64,38
253,343	70,03
253,887	63,72
254,43	66,56
254,974	67,76
255,517	66
256,06	65,33
256,603	71,96
257,146	70,92
257,689	66,44
258,232	86,11
258,774	79,45
259,317	64,94
259,859	69,67
260,401	67,11
260,943	74,4
261,485	72,24
262,027	65,81
262,569	70,3
263,11	60,39
263,652	77,13
264,193	67,92
264,734	73,78
265,275	67,82
265,816	74,32
266,357	66,44
266,898	68,46
267,438	69,9
267,979	72,03
268,519	68,18
269,059	75,43
269,6	74
270,14	68,6
270,68	77,82
271,219	69,13
271,759	72,09
272,298	69,65
272,838	74,92
273,377	69,26
273,916	74,06
274,455	72,82
274,994	78,15
275,533	65,02
276,072	74,31
276,61	72,1
277,149	80,57
277,687	64,78
278,225	72,47
278,763	65,4
279,301	76,26
279,839	67,67
280,377	69,55
280,914	71,73
281,452	67,57
281,989	74,14
282,526	76,24
283,064	82,8
283,601	66,46
284,137	68,15
284,674	61,04
285,211	65,96
285,747	71,82
286,284	73,97
286,82	69,62
287,356	76,87
287,892	72
288,428	61,97
288,964	77,26
289,5	72,92
290,035	62,5
290,571	63,36
291,106	63,21
291,641	71,43
292,176	65,29
292,711	72,15
293,246	63,06
293,781	71,73
294,315	66,67
294,85	59,34
295,384	71,33
295,918	67,91
296,453	65,62
296,987	65,67
297,52	72,99
298,054	69,61
298,588	61,99
299,121	63,73
299,655	65,8
300,188	67,14
300,721	57,24
301,254	82,87
301,787	66,67
302,32	67,7
302,853	68,24
303,385	67,99
303,918	68,18
304,45	67,85
304,982	68,09
305,514	65,78
306,046	65,22
306,578	74,91
307,11	66,42
307,641	63,27
308,173	64,23
308,704	59,32
309,236	68,94
309,767	70,55
310,298	66,67
310,829	59,57
311,359	60,78
311,89	66,21
312,421	72,48
312,951	65,3
313,481	72,28
314,012	64,73
314,542	73,1
315,072	67,25
315,601	61,54
316,131	68,38
316,661	62,75
317,19	62,17
317,72	66,34
318,249	68,75
318,778	67,84
319,307	69,16
319,836	69,2
320,365	68,86
320,893	66,43
321,422	69,67
321,95	63,1
322,479	68,29
323,007	67,36
323,535	64,4
324,063	61,02
324,591	70,63
325,118	66,24
325,646	66,91
326,173	67,56
326,701	67,25
327,228	68,21
327,755	68,85
328,282	66,89
328,809	62,15
329,336	68,75
329,862	66,46
330,389	64,8
330,915	71,14
331,441	64,14
331,968	65,1
332,494	55,41
333,02	66,67
333,545	69,11
334,071	65,09
334,597	58,33
335,122	57,59
335,648	68,83
336,173	59,93
336,698	58,41
337,223	62,58
337,748	69,55
338,272	62,5
338,797	63,4
339,322	51,68
339,846	63,93
340,37	57,93
340,894	50,31
341,419	62,42
341,942	61,78
342,466	53,37
342,99	50
343,514	56,67
344,037	54,21
344,56	57,02
345,084	54,75
345,607	51,84
346,13	58,89
346,653	50,86
347,175	54,12
347,698	59,38
348,221	60,06
348,743	47,58
349,265	48
349,787	41,41
350,309	51,4
350,831	44,8
351,353	47,7
351,875	47,53
352,397	44,3
352,918	41,45
353,439	41,73
353,961	45,68
354,482	42,35
355,003	44,56
355,524	47,06
356,044	43,22
356,565	51,74
357,086	44,77
357,606	42,49
358,126	42,96
358,646	46,9
359,167	43,63
359,687	42,74
360,206	40,91
360,726	44,1
361,246	40,3
361,765	45,76
362,285	37,66
362,804	42,3
363,323	42,06
363,842	34,71
364,361	42,3
364,88	38,52
365,398	40,04
365,917	38,26
366,435	37,89
366,954	38,42
367,472	39,17
367,99	39,07
368,508	36,24
369,026	36,53
369,544	35,74
370,061	35,94
370,579	32,7
371,096	35,75
371,613	37,02
372,131	34,88
372,648	32,44
373,165	35,23
373,681	34,52
374,198	31,92
374,715	31,9
375,231	33,86
375,747	33,23
376,264	32,52
376,78	32,01
377,296	30,92
377,812	32,36
378,327	31,33
378,843	32,79
379,359	30,48
379,874	32,36
380,389	30,25
380,905	33,16
381,42	33,29
381,935	29,69
382,449	28,97
382,964	29,43
383,479	28,35
383,993	25,56
384,508	26,33
385,022	25,14
385,536	27,5
386,05	27,82
386,564	25,69
387,078	25,66
387,592	25,51
388,105	23,66
388,619	26,35
389,132	22,21
389,645	22,54
390,158	20,91
390,671	22,89
391,184	23,36
391,697	23,15
392,21	23,48
392,722	24,1
393,235	22,58
393,747	22,78
394,259	22,39
394,771	21,8
395,283	23,16
395,795	21,88
396,307	19,9
396,818	19,45
397,33	21,15
397,841	19,04
398,353	20,45
398,864	19,24
399,375	18,97
399,886	17,33
400,397	16,48
400,907	15,77
401,418	16,81
401,928	16,77
402,439	17,19
402,949	16,57
403,459	16,31
403,969	16,78
404,479	15,14
404,989	13,51
405,498	12,59
406,008	13,99
406,517	13,84
407,027	13,24
407,536	12,88
408,045	12,55
408,554	11,22
409,063	12,54
409,572	12,41
410,08	11,2
410,589	10,76
411,097	10,52
411,606	9,84
412,114	9,93
412,622	9,02
413,13	8,62
413,638	8,55
414,145	8,06
414,653	7,98
415,16	8,61
415,668	7,7
416,175	7,54
416,682	7,79
417,189	7,41
417,696	7,77
418,203	7,25
418,71	7,11
419,216	6,87
419,723	6,82
420,229	7,05
420,735	6,62
421,242	6,55
421,748	6,77
422,254	6,48
422,759	6,58
423,265	6,46
423,771	6,57
424,276	6,26
424,781	5,98
425,287	5,56
425,792	6,3
426,297	5,69
426,802	5,8
427,306	5,81
427,811	5,95
428,316	5,53
428,82	5,68
429,324	5,65
429,829	5,53
430,333	5,92
430,837	5,63
431,34	5,74
431,844	5,52
432,348	5,15
432,851	5,07
433,355	4,96
433,858	5,26
434,361	5,24
434,864	5,46
435,367	5,12
435,87	5,45
436,373	5,28
436,876	5,3
437,378	5,11
437,88	5,13
438,383	5,17
438,885	5,21
439,387	5,34
439,889	5,19
440,391	5,12
440,892	4,77
441,394	4,96
441,896	5,19
442,397	4,95
442,898	5,13
443,399	5,17
443,9	4,9
444,401	4,89
444,902	4,95
445,403	5,15
445,903	5,03
446,404	4,97
446,904	4,8
447,405	5,15
447,905	5,29
448,405	5,28
448,905	5,15
449,404	5,62
449,904	5,3
450,404	5,17
450,903	4,92
451,403	5,21
451,902	5,12
452,401	4,83
452,9	5,45
453,399	5,19
453,898	5,14
454,396	5,49
454,895	5,35
455,393	5,66
455,892	5,51
456,39	5,46
456,888	5,25
457,386	5,16
457,884	5,3
458,382	5,6
458,879	5,42
459,377	5,46
459,874	5,32
460,372	5,12
460,869	5,53
461,366	5,47
461,863	5,12
462,36	5,41
462,857	5,49
463,353	5,24
463,85	5,39
464,346	5,3
464,843	5,59
465,339	5,23
465,835	5,22
466,331	5,22
466,827	5,28
467,323	5,41
467,818	5,2
468,314	5,18
468,809	5,2
469,305	5,37
469,8	5,34
470,295	5,29
470,79	5,01
471,285	5,39
471,78	5,27
472,274	5,15
472,769	5,01
473,263	5,21
473,758	5,37
474,252	5,19
474,746	5,14
475,24	5,07
475,734	5,29
476,228	5,27
476,721	5,44
477,215	5,3
477,708	5,25
478,202	5,03
478,695	5,35
479,188	5,41
479,681	5,25
480,174	5,07
480,667	5,52
481,159	5,4
481,652	5,44
482,144	5,27
482,637	5,47
483,129	5,43
483,621	5,36
484,113	5,33
484,605	5,68
485,097	5,4
485,588	5,48
486,08	5,57
486,571	5,47
487,063	5,44
487,554	5,46
488,045	5,69
488,536	5,7
489,027	5,54
489,518	5,63
490,008	5,57
490,499	5,71
490,989	5,83
491,48	5,82
491,97	5,81
492,46	5,82
492,95	5,61
493,44	5,89
493,93	6,17
494,419	6,19
494,909	5,96
495,398	6,11
495,888	6,26
496,377	6,12
496,866	6,36
497,355	6,33
497,844	6,58
498,333	6,57
498,821	6,56
499,31	6,65
499,798	6,78
500,287	6,98
500,775	7,25
501,263	7,13
501,751	7,04
502,239	7,21
502,727	7,21
503,215	7,63
503,702	7,88
504,19	8,01
504,677	7,84
505,164	8,17
505,651	8,25
506,139	8,37
506,625	8,61
507,112	8,93
507,599	8,94
508,086	9,18
508,572	9,6
509,058	9,5
509,545	9,55
510,031	9,69
510,517	10,24
511,003	10,22
511,489	10,55
511,974	10,83
512,46	10,99
512,946	11,35
513,431	11,33
513,916	11,87
514,401	11,85
514,887	12,3
515,371	12,38
515,856	12,64
516,341	13,03
516,826	13,26
517,31	13,59
517,795	13,96
518,279	14,14
518,763	14,48
519,247	15,14
519,731	15,26
520,215	15,72
520,699	15,94
521,182	16,42
521,666	16,45
522,149	16,95
522,633	17,32
523,116	17,41
523,599	17,94
524,082	18,13
524,565	18,56
525,048	19,25
525,53	19,21
526,013	19,65
526,495	19,97
526,978	20,59
527,46	20,26
527,942	20,88
528,424	20,8
528,906	21,42
529,388	21,63
529,87	21,82
530,351	21,75
530,833	21,89
531,314	22,29
531,795	22,9
532,277	22,75
532,758	23,01
533,238	23,39
533,719	23,37
534,2	23,45
534,681	23,63
535,161	23,56
535,642	23,8
536,122	23,73
536,602	23,94
537,082	24,13
537,562	24,11
538,042	24,33
538,522	24,5
539,001	24,68
539,481	24,29
539,96	24,62
540,44	24,84
540,919	24,59
541,398	25,13
541,877	25,28
542,356	25,07
542,835	24,85
543,313	24,99
543,792	25,18
544,27	25,02
544,749	25,04
545,227	25,28
545,705	25,4
546,183	25,16
546,661	25,5
547,139	25,46
547,616	25,85
548,094	25,45
548,571	25,73
549,049	25,74
549,526	25,93
550,003	25,9
550,48	25,92
550,957	25,91
551,434	26,04
551,911	25,93
552,387	26,3
552,864	26,01
553,34	25,95
553,817	26,29
554,293	26,12
554,769	26,4
555,245	26,25
555,721	25,92
556,197	25,9
556,672	25,9
557,148	26,14
557,623	25,84
558,099	25,73
558,574	25,96
559,049	25,54
559,524	25,9
559,999	25,83
560,474	25,68
560,948	25,59
561,423	25,3
561,897	25,32
562,372	25
562,846	25,1
563,32	24,96
563,794	25,05
564,268	24,66
564,742	24,38
565,216	24,28
565,69	24,33
566,163	24,02
566,636	23,96
567,11	23,53
567,583	23,35
568,056	23,34
568,529	22,91
569,002	22,93
569,475	22,85
569,947	22,71
570,42	22,55
570,892	22,49
571,365	22,22
571,837	21,71
572,309	21,75
572,781	21,52
573,253	21,05
573,725	21,11
574,197	20,83
574,668	20,91
575,14	20,58
575,611	20,2
576,082	20,2
576,554	20,04
577,025	19,89
577,496	19,94
577,967	19,8
578,437	19,36
578,908	19,27
579,379	19,16
579,849	19,17
580,319	19,03
580,79	18,76
581,26	18,49
581,73	18,34
582,2	18,19
582,669	18,41
583,139	18,29
583,609	17,9
584,078	18
584,548	17,87
585,017	17,6
585,486	17,67
585,955	17,58
586,424	17,37
586,893	17,33
587,362	17,21
587,83	17,11
588,299	16,98
588,767	17,01
589,236	16,87
589,704	17,09
590,172	16,52
590,64	16,88
591,108	16,56
591,576	16,53
592,043	16,54
592,511	16,39
592,978	16,26
593,446	16,22
593,913	16,34
594,38	16,1
594,847	16,33
595,314	16,25
595,781	15,99
596,248	16,27
596,715	15,96
597,181	15,9
597,647	15,7
598,114	15,98
598,58	15,63
599,046	15,89
599,512	15,78
599,978	15,83
600,444	15,67
600,91	15,56
601,375	15,78
601,841	15,75
602,306	15,56
602,771	15,44
603,236	15,5
603,702	15,32
604,167	15,21
604,631	15,23
605,096	15,38
605,561	15,22
606,025	15,3
606,49	15,05
606,954	14,96
607,418	14,66
607,882	14,77
608,347	14,63
608,81	14,37
609,274	14,43
609,738	14,31
610,202	14,34
610,665	14,27
611,128	14,04
611,592	14,06
612,055	13,87
612,518	13,95
612,981	13,91
613,444	13,76
613,907	13,65
614,369	13,56
614,832	13,31
615,294	13,21
615,757	13,24
616,219	13,35
616,681	13
617,143	12,96
617,605	12,92
618,067	12,83
618,529	12,77
618,99	12,88
619,452	12,55
619,913	12,67
620,375	12,49
620,836	12,46
621,297	12,3
621,758	12,4
622,219	12,26
622,68	12,16
623,14	12,09
623,601	12,12
624,061	12,1
624,522	12,15
624,982	11,95
625,442	12,06
625,902	11,93
626,362	12,09
626,822	11,84
627,282	11,99
627,742	11,77
628,201	11,91
628,661	11,96
629,12	11,87
629,579	11,82
630,038	11,76
630,497	11,77
630,956	11,8
631,415	11,65
631,874	11,66
632,332	11,59
632,791	11,72
633,249	11,61
633,708	11,61
634,166	11,43
634,624	11,46
635,082	11,62
635,54	11,39
635,998	11,09
636,455	11,13
636,913	11
637,37	11,04
637,828	10,91
638,285	10,78
638,742	10,67
639,199	10,49
639,656	10,28
640,113	10,43
640,57	10,05
641,027	10,05
641,483	9,99
641,94	10
642,396	9,67
642,852	9,71
643,309	9,57
643,765	9,45
644,221	9,28
644,676	9,13
645,132	9,02
645,588	8,92
646,043	8,93
646,499	8,72
646,954	8,58
647,409	8,44
647,864	8,54
648,319	8,34
648,774	8,14
649,229	8,24
649,684	8,17
650,139	8,04
650,593	8,03
651,047	7,75
651,502	7,8
651,956	7,82
652,41	7,68
652,864	7,74
653,318	7,61
653,772	7,62
654,225	7,63
654,679	7,47
655,133	7,51
655,586	7,41
656,039	7,43
656,492	7,37
656,946	7,34
657,399	7,32
657,851	7,21
658,304	7,15
658,757	7,13
659,209	7,01
659,662	6,97
660,114	6,81
660,567	6,8
661,019	6,59
661,471	6,64
661,923	6,6
662,375	6,38
662,826	6,47
663,278	6,27
663,73	6,23
664,181	6,27
664,632	6,14
665,084	6,05
665,535	6
665,986	5,98
666,437	5,91
666,888	5,85
667,338	5,76
667,789	5,86
668,24	5,8
668,69	5,79
669,14	5,74
669,591	5,77
670,041	5,83
670,491	5,78
670,941	5,83
671,391	5,69
671,84	5,77
672,29	5,87
672,74	5,88
673,189	5,89
673,638	5,96
674,088	5,96
674,537	6,01
674,986	6,14
675,435	6,07
675,883	6,15
676,332	6,24
676,781	6,3
677,229	6,48
677,678	6,48
678,126	6,49
678,574	6,69
679,022	6,73
679,47	6,89
679,918	6,86
680,366	6,98
680,814	7,18
681,261	7,27
681,709	7,34
682,156	7,5
682,604	7,59
683,051	7,71
683,498	7,91
683,945	7,96
684,392	8,09
684,839	8,25
685,286	8,24
685,732	8,53
686,179	8,83
686,625	8,92
687,071	8,99
687,518	9,21
687,964	9,37
688,41	9,64
688,856	9,91
689,301	10,23
689,747	10,39
690,193	10,84
690,638	11,16
691,084	11,47
691,529	12,01
691,974	12,3
692,419	12,96
692,864	13,41
693,309	13,82
693,754	14,49
694,199	14,97
694,643	15,57
695,088	16,12
695,532	16,57
695,977	17,3
696,421	17,96
696,865	18,54
697,309	19,29
697,753	19,95
698,197	20,6
698,64	21,03
699,084	21,82
699,527	22,52
699,971	23,36
700,414	24,04
700,857	24,72
701,3	25,51
701,743	26,11
702,186	26,76
702,629	27,65
703,072	28,29
703,515	29,12
703,957	29,72
704,399	30,56
704,842	31,1
705,284	31,85
705,726	32,63
706,168	33,15
706,61	33,87
707,052	34,58
707,494	35,4
707,935	36,08
708,377	36,49
708,818	37,19
709,26	38,1
709,701	38,73
710,142	39,56
710,583	39,93
711,024	40,61
711,465	41,46
711,905	41,79
712,346	42,46
712,787	43,56
713,227	44,04
713,667	44,75
714,108	45,29
714,548	45,9
714,988	46,62
715,428	47,19
715,868	47,72
716,307	48,35
716,747	49,31
717,186	49,75
717,626	50,38
718,065	51,06
718,504	51,59
718,944	52,33
719,383	52,71
719,822	53,31
720,261	54,11
720,699	54,43
721,138	55,18
721,576	55,48
722,015	56,07
722,453	56,68
722,892	57,08
723,33	57,63
723,768	58,03
724,206	58,57
724,644	59,03
725,081	59,47
725,519	59,66
725,957	60,04
726,394	60,84
726,832	61,44
727,269	61,93
727,706	62,08
728,143	62,54
728,58	62,76
729,017	63,39
729,454	63,89
729,89	63,83
730,327	64,45
730,764	65,08
731,2	65,08
731,636	65,22
732,072	65,73
732,509	65,82
732,945	66,18
733,38	66,32
733,816	66,79
734,252	66,94
734,688	67,26
735,123	67,59
735,559	67,49
735,994	68,32
736,429	68,25
736,864	68,16
737,299	68,49
737,734	68,96
738,169	69,09
738,604	69,21
739,038	69,5
739,473	69,74
739,907	69,65
740,342	70,05
740,776	69,7
741,21	69,76
741,644	69,89
742,078	70,11
742,512	70,15
742,946	70,59
743,379	70,94
743,813	70,69
744,246	70,73
744,68	70,96
745,113	70,97
745,546	71,09
745,979	71,51
746,412	70,9
746,845	71,46
747,278	71,13
747,711	71,23
748,143	71,27
748,576	71,3
749,008	71,39
749,441	71,77
749,873	71,4
750,305	71,8
750,737	71,38
751,169	71,39
751,601	71,33
752,032	71,58
752,464	71,57
752,896	71,81
753,327	71,48
753,758	71,57
754,19	71,93
754,621	71,79
755,052	71,97
755,483	72,23
755,914	71,28
756,344	71,73
756,775	71,92
757,206	71,38
757,636	72,11
758,066	71,93
758,497	71,38
758,927	71,99
759,357	71,98
759,787	71,49
760,217	71,84
760,647	71,56
761,076	71,54
761,506	71,59
761,935	71,7
762,365	71,42
762,794	71,82
763,223	71,5
763,653	71,73
764,082	71,73
764,51	71,42
764,939	71,31
765,368	71,95
765,797	71,83
766,225	71,79
766,654	71,55
767,082	71,71
767,51	71,69
767,938	71,26
768,367	71,89
768,795	71,33
769,222	71,36
769,65	71,45
770,078	71,69
770,505	71,16
770,933	71,4
771,36	71,56
771,788	71,62
772,215	71,7
772,642	71,59
773,069	71,42
773,496	71,01
773,923	71,18
774,349	71,18
774,776	71,76
775,203	71,1
775,629	71,48
776,055	71,66
776,482	71,75
776,908	71,22
777,334	71,2
777,76	71,51
778,186	71,53
778,611	71,46
779,037	71,52
779,463	71,36
779,888	71,35
780,314	71,65
780,739	71,06
781,164	71,33
781,589	71,13
782,014	71,07
782,439	71,4
782,864	71,35
783,289	71,12
783,713	71,36
784,138	70,99
784,562	71,3
784,987	71,36
785,411	71,01
785,835	70,97
786,259	70,94
786,683	71,05
787,107	70,94
787,531	71,19
787,954	71,07
788,378	71,45
788,802	71,36
789,225	70,88
789,648	71,06
790,071	71,05
790,495	71,32
790,918	71,5
791,34	71,34
791,763	71,1
792,186	71,41
792,609	71,41
793,031	71,09
793,454	71,48
793,876	70,97
794,298	71,43
794,721	71,59
795,143	71,14
795,565	70,99
795,986	71,23
796,408	71,51
796,83	71,16
797,252	71,06
797,673	71,53
798,094	71,25
798,516	71,1
798,937	71,42
799,358	71,25
799,779	71,13
800,2	71,3
800,621	71,53
801,042	71,41
801,462	71,29
801,883	71,57
802,303	71,17
802,724	71,21
803,144	71,51
803,564	71,11
803,984	71,62
804,404	71,48
804,824	71,28
805,244	71,36
805,664	70,92
806,084	71,18
806,503	71,45
806,923	71,36
807,342	70,95
807,761	71,25
808,18	71,89
808,599	70,92
809,018	70,88
809,437	71,85
809,856	71,42
810,275	71,42
810,693	71,28
811,112	71,23
811,53	71,56
811,949	71,34
812,367	71,02
812,785	71,4
813,203	70,98
813,621	71,19
814,039	71,29
814,457	71,62
814,874	71,71
815,292	71,86
815,709	71,66
816,127	70,93
816,544	71,55
816,961	71,61
817,378	71,28
817,795	71,09
818,212	71,07
818,629	71,26
819,046	71,06
819,462	71,34
819,879	71,11
820,295	70,84
820,712	71,53
821,128	71,41
821,544	71,09
821,96	71,07
822,376	71,6
822,792	71,09
823,208	71,35
823,624	71,51
824,039	71,29
824,455	71,26
824,87	71,66
825,286	71,9
825,701	71,77
826,116	71,06
826,531	71,16
826,946	71,39
827,361	71,54
827,776	71,49
828,19	71,36
828,605	71,63
829,02	71,48
829,434	71,36
829,848	71,69
830,263	71,08
830,677	71,51
831,091	71,4
831,505	71,15
831,919	71,66
832,332	71,46
832,746	71,13
833,16	71,12
833,573	71,29
833,987	71,24
834,4	71,45
834,813	71,58
835,226	71,5
835,639	71,49
836,052	71,75
836,465	71,52
836,878	71,41
837,29	70,82
837,703	71,56
838,116	71,63
838,528	71,09
838,94	71,3
839,352	71,38
839,765	71,26
840,177	71,54
840,589	71,18
841	71,05
841,412	71,6
841,824	71,29
842,235	71,47
842,647	71,04
843,058	71,02
843,47	71,17
843,881	71,07
844,292	71,83
844,703	71,02
845,114	71,26
845,525	70,96
845,935	71,36
846,346	71,81
846,757	71,51
847,167	71,26
847,577	71,49
847,988	71,16
848,398	71,65
848,808	71,53
849,218	71,57
849,628	71,4
850,038	71,22
850,448	71,59
850,857	71,37
851,267	71,45
851,676	71,44
852,086	71,35
852,495	71,22
852,904	71,24
853,313	71,39
853,722	71,65
854,131	71,43
854,54	71,44
854,949	71,37
855,357	71,31
855,766	71,65
856,174	70,96
856,583	71,01
856,991	71,43
857,399	71,67
857,807	71,11
858,215	71,45
858,623	71,46
859,031	71,59
859,439	71,6
859,846	70,99
860,254	71,15
860,661	71,48
861,069	71,97
861,476	71,41
861,883	71,45
862,29	71,05
862,697	71,54
863,104	71,46
863,511	71,26
863,918	71,27
864,325	71,27
864,731	71,52
865,138	71,01
865,544	71,47
865,95	72
866,357	70,88
866,763	71,75
867,169	71,62
867,575	71,37
867,98	71,5
868,386	71,93
868,792	71,57
869,197	71,95
869,603	71,53
870,008	71,38
870,414	71,41
870,819	71,36
871,224	72,04
871,629	71,46
872,034	71,5
872,439	71,63
872,844	71,49
873,248	71,39
873,653	71,66
874,057	71,27
874,462	71,46
874,866	71,81
875,27	71,75
875,674	71,36
876,078	71,73
876,482	71,77
876,886	72,04
877,29	71,82
877,694	71,86
878,097	71,58
878,501	72,1
878,904	71,56
879,308	71,13
879,711	71,99
880,114	71,18
880,517	71,75
880,92	72,1
881,323	71,33
881,726	71,15
882,128	71,95
882,531	71,9
882,934	71,95
883,336	71,44
883,738	71,62
884,141	71,79
884,543	71,78
884,945	71,82
885,347	71,93
885,749	71,44
886,151	71,58
886,552	71,31
886,954	71,5
887,355	71,49
887,757	71,83
888,158	72,12
888,56	71,81
888,961	71,69
889,362	71,85
889,763	71,97
890,164	71,65
890,565	71,6
890,965	71,61
891,366	71,5
891,767	71,77
892,167	71,58
892,567	71,93
892,968	71,6
893,368	72,13
893,768	71,52
894,168	71,95
894,568	71,53
894,968	71,84
895,368	71,69
895,767	72,24
896,167	71,7
896,566	71,6
896,966	72,06
897,365	71,71
897,764	71,99
898,164	72,15
898,563	72,09
898,962	72,11
899,361	71,24
899,759	71,77
900,158	71,88
900,557	71,86
900,955	71,55
901,354	71,82
901,752	71,49
902,15	72,31
902,548	72,34
902,947	71,88
903,345	71,96
903,742	71,68
904,14	72,07
904,538	71,77
904,936	71,89
905,333	71,98
905,731	71,11
906,128	72,28
906,525	71,64
906,923	71,77
907,32	72,13
907,717	72,07
908,114	71,86
908,511	71,54
908,907	72,3
909,304	72,06
909,701	72,24
910,097	72,1
910,494	71,54
910,89	71,88
911,286	71,97
911,682	71,84
912,078	71,98
912,474	71,39
912,87	71,57
913,266	72,11
913,662	71,76
914,058	71,9
914,453	71,27
914,849	71,49
915,244	72,08
915,639	72,28
916,034	72,08
916,43	71,39
916,825	71,27
917,22	72,07
917,614	71,65
918,009	72,06
918,404	71,52
918,798	72
919,193	71,91
919,587	72
919,982	72,46
920,376	71,66
920,77	71,37
921,164	72,56
921,558	71,39
921,952	71,86
922,346	72,11
922,74	71,58
923,133	71,8
923,527	71,41
923,92	71,49
924,314	71,83
924,707	71,7
925,1	71,6
925,493	72,03
925,886	71,92
926,279	71,69
926,672	71,83
927,065	71,84
927,457	71,39
927,85	71,61
928,243	72,07
928,635	71,93
929,027	71,55
929,42	72,07
929,812	71,71
930,204	71,23
930,596	71,91
930,988	72,21
931,379	71,69
931,771	71,74
932,163	71,71
932,554	71,43
932,946	71,73
933,337	71,98
933,729	71,71
934,12	71,89
934,511	71,42
934,902	71,26
935,293	72
935,684	71,72
936,075	70,68
936,465	72,25
936,856	71,3
937,246	71,6
937,637	71,21
938,027	71,13
938,417	71,66
938,808	71,81
939,198	71,1
939,588	71,86
939,978	70,87
940,368	70,95
940,757	71,58
941,147	70,74
941,537	71,54
941,926	70,91
942,315	70,87
942,705	72,15
943,094	70,58
943,483	72,14
943,872	71,1
944,261	71,03
944,65	71,09
945,039	70,93
945,428	70,75
945,816	71,6
946,205	71,44
946,593	70,53
946,982	70,31
947,37	70,82
947,758	71,81
948,146	71,36
948,534	70,25
948,922	70,67
949,31	70,66
949,698	70,75
950,086	70,35
950,473	71,09
950,861	70,89
951,248	70,16
951,636	70,95
952,023	70,56
952,41	70,54
952,797	70,25
953,184	70,75
953,571	71,05
953,958	70,69
954,345	70,91
954,731	70,37
955,118	70,76
955,505	70,37
955,891	70,27
956,277	71,21
956,664	70,56
957,05	71,2
957,436	69,81
957,822	70,34
958,208	70,03
958,594	70,67
958,979	70,16
959,365	69,71
959,751	70,4
960,136	70,27
960,522	70,31
960,907	70,44
961,292	70,31
961,677	70,15
962,062	70,56
962,447	69,84
962,832	70,14
963,217	70,39
963,602	69,3
963,986	69,82
964,371	70,2
964,756	70,22
965,14	70,24
965,524	69,68
965,908	69,65
966,293	70,37
966,677	69,83
967,061	70,26
967,445	69,25
967,828	70,8
968,212	69,73
968,596	69,93
968,979	69,74
969,363	70,02
969,746	70,1
970,129	70,28
970,513	70,22
970,896	69,85
971,279	68,67
971,662	70,25
972,045	70,19
972,428	69,26
972,81	69,83
973,193	70,29
973,575	70,49
973,958	70,27
974,34	70,32
974,723	70,42
975,105	70,22
975,487	70,09
975,869	69,33
976,251	69,68
976,633	70,04
977,015	69,49
977,396	70,37
977,778	69,97
978,16	69,55
978,541	69,7
978,922	70,66
979,304	70,24
979,685	70,02
980,066	69,71
980,447	70,56
980,828	69,88
981,209	69,62
981,59	70,19
981,97	70,81
982,351	69,45
982,732	70,17
983,112	70,57
983,493	70,34
983,873	69,62
984,253	70,3
984,633	70,06
985,013	70,34
985,393	70,12
985,773	70,52
986,153	70,09
986,533	70,26
986,912	70,15
987,292	70,02
987,671	70,17
988,051	70,2
988,43	69,96
988,809	70,31
989,188	69,98
989,567	70,01
989,946	69,67
990,325	70,17
990,704	70,03
991,083	70,27
991,461	70,09
991,84	70,55
992,218	69,92
992,597	69,87
992,975	70,23
993,353	70,18
993,732	70,33
994,11	70,2
994,488	70,49
994,866	70,11
995,243	70,49
995,621	70,06
995,999	71,06
996,376	70,78
996,754	70,63
997,131	70,57
997,509	70,26
997,886	70,4
998,263	69,67
998,64	70,47
999,017	70,34
999,394	70,99
999,771	70,17
1000,148	70,14
1000,524	70,19
1000,901	70,26
1001,277	70,92
1001,654	70,7
1002,03	70,39
1002,406	70,41
1002,783	70,55
1003,159	70,26
1003,535	70,46
1003,911	70,71
1004,286	71,13
1004,662	70,35
1005,038	71,04
1005,414	70,87
1005,789	70,95
1006,164	71,89
1006,54	71,28
1006,915	70,62
1007,29	71,2
1007,665	71,1
1008,04	71,2
1008,415	70,67
1008,79	70,75
1009,165	71,2
1009,54	71,2
1009,914	71,4
1010,289	70,25
1010,663	70,86
1011,038	71,07
1011,412	71,49
1011,786	71,11
1012,16	71,11
1012,535	70,51
1012,909	70,07
1013,282	71,81
1013,656	70,2
1014,03	71,07
1014,404	70,88
1014,777	70,35
1015,151	71,69
1015,524	70,77
1015,897	71,33
1016,271	71,07
1016,644	71,19
1017,017	71,99
1017,39	70,48
1017,763	70,76
1018,136	70,36
1018,508	70,56
1018,881	71,35
1019,254	70,76
1019,626	71,35
1019,999	70,73
1020,371	71,83
1020,743	70,93
1021,116	71,45
1021,488	71,04
1021,86	71,63
1022,232	70,85
1022,604	70,76
1022,975	71,69
1023,347	71,59
1023,719	70,94
1024,09	72,26
1024,462	71,43
1024,833	71,05
1025,204	71,13
1025,576	72,08
1025,947	71,57
1026,318	71,36
1026,689	72,14
1027,06	70,06
1027,431	71,61
1027,801	71,31
1028,172	71,17
1028,543	71,75
1028,913	71,36
1029,284	72,08
1029,654	71,14
1030,024	71,35
1030,394	70,35
1030,764	71,17
1031,135	71,53
1031,504	71,06
1031,874	71,41
1032,244	71,86
1032,614	70,78
1032,983	71,69
1033,353	70,56
1033,722	71,31
1034,092	72,14
1034,461	71,7
1034,83	70,84
1035,2	71,47
1035,569	72,3
1035,938	72
1036,307	71,59
1036,675	71,14
1037,044	71,27
1037,413	72,3
1037,781	72,2
1038,15	71,24
1038,518	71,18
1038,887	71,57
1039,255	71,49
1039,623	71,62
1039,991	71,72
1040,359	71,32
1040,727	72,86
1041,095	71,17
1041,463	72,25
1041,831	71,7
1042,198	70,48
1042,566	72,19
1042,933	71,19
1043,301	72,33
1043,668	71,97
1044,035	71,74
1044,402	71,94
1044,77	72,14
1045,137	72,8
1045,503	71,89
1045,87	71,15
1046,237	71,08
1046,604	71,68
1046,97	71,69
1047,337	72,6
1047,703	72,61
1048,07	71,15
1048,436	71,79
1048,802	72,28
1049,168	74,34
1049,534	73,22
1049,9	71,7
1050,266	72,77
1050,632	73,08
1050,998	72,92
1051,364	71,44
1051,729	72,4
1052,095	71,69
1052,46	72,07
1052,825	71,84
1053,191	72,26
1053,556	73,55
1053,921	73,57
1054,286	73,44
1054,651	70,97
1055,016	70,9
1055,381	72,13
1055,745	74,11
1056,11	72,95
1056,475	72,85
1056,839	72,53
1057,203	72,5
1057,568	74,15
1057,932	73,15
1058,296	71,9
1058,66	73,89
1059,024	72,8
1059,388	71,86
1059,752	73
1060,116	73,23
1060,48	72,89
1060,843	71,4
1061,207	72,93
1061,57	71,52
1061,934	74,6
1062,297	72,19
1062,66	72,4
1063,023	70,86
1063,386	72,69
1063,749	72,47
1064,112	72,41
1064,475	72,88
1064,838	72,07
1065,201	71,75
1065,563	73,06
1065,926	71,2
1066,288	74,11
1066,651	72,19
1067,013	72,49
1067,375	70,47
1067,737	73,41
1068,099	73,63
1068,461	73,19
1068,823	73,33
1069,185	72,06
1069,547	70,84
1069,909	72,58
1070,27	71,57
1070,632	73,79
1070,993	72,37
1071,355	73,04
1071,716	73,18
1072,077	72,65
1072,438	73,8
1072,799	72,42
1073,16	72,97
1073,521	71,88
1073,882	72,81
1074,243	74,06
1074,603	71,65
1074,964	75,63
1075,325	74,35
1075,685	73,51
1076,045	72,91
1076,406	71,89
1076,766	73,21
1077,126	73,5
1077,486	72
1077,846	73,06
1078,206	73,38
1078,566	72,48
1078,925	71,47
1079,285	72,81
1079,645	71,28
1080,004	73,1
1080,364	71,59
1080,723	73,28
1081,082	72,62
1081,442	73,66
1081,801	73,56
1082,16	70,62
1082,519	70,03
1082,878	72,33
1083,237	73,26
1083,595	72,13
1083,954	73,25
1084,313	71,96
1084,671	71,49
1085,03	70,27
1085,388	74,61
1085,746	73,79
1086,104	72,03
1086,463	71,29
1086,821	73,64
1087,179	71,8
1087,537	74,32
1087,894	76,13
1088,252	71,66
1088,61	73,66
1088,967	71,36
1089,325	73,13
1089,682	74,79
1090,04	71,23
1090,397	72,77
1090,754	73,57
1091,111	75,68
1091,469	74,27
1091,826	70,53
1092,182	73,39
1092,539	73,07
1092,896	75,47
1093,253	72,7
1093,609	73,15
1093,966	71,49
1094,322	72,83
1094,679	71,81
1095,035	73,53
1095,391	75,26
1095,748	73,69
1096,104	72,18
1096,46	72,26
1096,816	74,13
1097,171	71,98
1097,527	72,14
1097,883	71,98
1098,239	74,33
1098,594	71,62
1098,95	73,69
1099,305	73,21
1099,66	73,83
1100,016	72,86
1100,371	72,08
1100,726	72,06
1101,081	73,58
1101,436	72,11
1101,791	74,27
1102,146	73,47
1102,5	72,23
1102,855	73,57
1103,21	72,82
1103,564	73,46
1103,918	75,54
1104,273	73,34
1104,627	71,68
1104,981	72,01
1105,335	73,37
1105,69	71,76
1106,043	77,22
1106,397	73,23
1106,751	74,9
1107,105	71,15
1107,459	70,75
1107,812	74,52
1108,166	72,6
1108,519	69,94
1108,873	72,48
1109,226	70,94
1109,579	74,89
1109,932	71,71
1110,285	73,05
1110,638	67,8
1110,991	73,43
1111,344	74,75
1111,697	71,26
1112,05	73,48
1112,402	73,74
1112,755	73,75
1113,107	75
1113,46	73,98
1113,812	71,54
1114,164	71,33
1114,517	72,65
1114,869	85,05
1115,221	100,88
1115,573	94,23
1115,924	86,55
