Data from L5__Relative__0__00037.txt Node

Date: Fri Feb 02 12:37:47 CET 2024
User: diatiterra
Spectrometer: HDX00911
Trigger mode: 0
Integration Time (sec): 6,000000E-3
Scans to average: 2
Nonlinearity correction enabled: false
Boxcar width: 0
Storing dark spectrum: false
XAxis mode: Wavelengths
Number of Pixels in Spectrum: 2068
>>>>>Begin Spectral Data<<<<<
194,468	91,27
195,025	66,21
195,581	90,57
196,138	74,24
196,694	82,91
197,251	74,59
197,807	72,69
198,363	61,88
198,919	59,81
199,474	57,83
200,03	61,98
200,586	64,04
201,141	61,59
201,696	68,63
202,251	67,08
202,806	57,64
203,361	66,88
203,916	60,95
204,471	65,27
205,025	56,51
205,58	62,24
206,134	65,24
206,688	67,58
207,242	56,79
207,796	74,66
208,35	63,22
208,904	58,41
209,457	65,91
210,011	66,56
210,564	61,49
211,117	64,58
211,67	69,46
212,223	66,77
212,776	68,65
213,329	62,06
213,881	73,15
214,434	67,66
214,986	71,88
215,538	66,45
216,09	57,39
216,642	69,54
217,194	60,37
217,746	64,24
218,297	72,7
218,849	59,67
219,4	69,29
219,951	65,17
220,502	62,63
221,053	69,29
221,604	69,6
222,155	70,65
222,705	74,05
223,256	73,36
223,806	66,45
224,356	70,88
224,906	65,19
225,456	68,77
226,006	66,46
226,556	71,79
227,106	63,16
227,655	59,57
228,204	60,65
228,754	61,83
229,303	64,67
229,852	71,94
230,401	69,09
230,949	69,16
231,498	64,36
232,047	75,34
232,595	62,38
233,143	59,88
233,691	63,14
234,239	71,73
234,787	65,98
235,335	68,63
235,883	71,63
236,43	64,71
236,978	71,05
237,525	66,67
238,072	66,25
238,619	65,31
239,166	57,28
239,713	67,36
240,26	63,35
240,806	62,38
241,353	70,96
241,899	63,46
242,445	56,85
242,991	68,83
243,537	68,42
244,083	60,13
244,629	60,31
245,174	67,63
245,72	69,06
246,265	64,43
246,81	62,38
247,355	68,35
247,9	62,3
248,445	68,06
248,99	72,55
249,534	62,67
250,079	62,83
250,623	66,67
251,168	66,67
251,712	72,08
252,256	66,11
252,8	60,31
253,343	56,78
253,887	62,46
254,43	61,92
254,974	67,11
255,517	60,33
256,06	63,33
256,603	72,64
257,146	66,34
257,689	64,41
258,232	84,92
258,774	71,23
259,317	65,58
259,859	66,67
260,401	70,07
260,943	67,92
261,485	70,46
262,027	58,71
262,569	69,64
263,11	61,04
263,652	76,79
264,193	69,28
264,734	74,83
265,275	69,55
265,816	70,61
266,357	57,19
266,898	70,13
267,438	66,44
267,979	76,22
268,519	67,53
269,059	71,28
269,6	68,33
270,14	70,99
270,68	72,18
271,219	66,78
271,759	63,12
272,298	62,94
272,838	70,74
273,377	63,85
273,916	69,62
274,455	71,78
274,994	68,89
275,533	64,31
276,072	73,91
276,61	70,29
277,149	80,21
277,687	65,78
278,225	61,32
278,763	68,51
279,301	69,06
279,839	64,33
280,377	66,78
280,914	67,14
281,452	63,18
281,989	68,06
282,526	69,15
283,064	81
283,601	60,87
284,137	70,89
284,674	66,88
285,211	64,13
285,747	62,54
286,284	66,1
286,82	65,87
287,356	71,53
287,892	54,91
288,428	65,14
288,964	67,87
289,5	60,42
290,035	62,5
290,571	63,7
291,106	61,87
291,641	72,11
292,176	67,7
292,711	59,06
293,246	57,64
293,781	64,66
294,315	66,67
294,85	67,54
295,384	69,89
295,918	66,89
296,453	62,85
296,987	56,33
297,52	74,82
298,054	64,31
298,588	65,41
299,121	69,37
299,655	61,24
300,188	61,43
300,721	60,94
301,254	72,91
301,787	61,46
302,32	63,23
302,853	69,26
303,385	71,22
303,918	62,94
304,45	69,77
304,982	58,51
305,514	66,54
306,046	59,87
306,578	68,55
307,11	71,22
307,641	66,33
308,173	58,39
308,704	67,8
309,236	58,36
309,767	63,7
310,298	58,1
310,829	63,18
311,359	69,28
311,89	58,62
312,421	65,1
312,951	64,04
313,481	64,42
314,012	64
314,542	73,1
315,072	59,65
315,601	52,56
316,131	65,98
316,661	60,4
317,19	65,79
317,72	58,17
318,249	63,89
318,778	68,9
319,307	58,88
319,836	61,96
320,365	69,23
320,893	61,48
321,422	57,67
321,95	65,17
322,479	67,94
323,007	62,15
323,535	59,87
324,063	63,9
324,591	68,53
325,118	58,84
325,646	66,19
326,173	70,57
326,701	61,62
327,228	65,56
327,755	69,84
328,282	60,33
328,809	63,89
329,336	62,15
329,862	57,99
330,389	62,5
330,915	64,09
331,441	64,48
331,968	58,39
332,494	60,66
333,02	58,84
333,545	53,82
334,071	62,89
334,597	59,29
335,122	56,96
335,648	62,66
336,173	58,63
336,698	53,97
337,223	55,81
337,748	67,63
338,272	55,62
338,797	58,5
339,322	56,57
339,846	54,64
340,37	53,51
340,894	50,31
341,419	56,37
341,942	56,05
342,466	61,04
342,99	50,3
343,514	52,5
344,037	50,28
344,56	54,39
345,084	50,28
345,607	54,21
346,13	49,27
346,653	48,56
347,175	51,65
347,698	53,5
348,221	51,96
348,743	47,04
349,265	49,07
349,787	47,32
350,309	52,53
350,831	43,32
351,353	43,62
351,875	48,57
352,397	47,85
352,918	42,39
353,439	38,27
353,961	46,91
354,482	49,74
355,003	52,15
355,524	47,57
356,044	43,22
356,565	47,51
357,086	37,64
357,606	42,26
358,126	42,96
358,646	46,19
359,167	40,17
359,687	39,58
360,206	37,5
360,726	38,21
361,246	40,93
361,765	41,53
362,285	30,85
362,804	40
363,323	39,38
363,842	38,84
364,361	37,96
364,88	38,32
365,398	37,58
365,917	37,67
366,435	32,53
366,954	34,65
367,472	32,96
367,99	34,81
368,508	35,48
369,026	33,71
369,544	38,03
370,061	33,27
370,579	29,09
371,096	32,12
371,613	33,06
372,131	32,92
372,648	28,91
373,165	33,56
373,681	30,16
374,198	27,67
374,715	30,98
375,231	27,87
375,747	33,06
376,264	30,08
376,78	31,42
377,296	26,73
377,812	25,28
378,327	28,55
378,843	29,8
379,359	23,03
379,874	28,12
380,389	25,57
380,905	27,61
381,42	24,56
381,935	24,58
382,449	27,59
382,964	24,6
383,479	23,25
383,993	22
384,508	21,35
385,022	21
385,536	22,81
386,05	20,71
386,564	21,3
387,078	22,22
387,592	20,37
388,105	19,8
388,619	20,37
389,132	19,4
389,645	17,17
390,158	18,71
390,671	19,49
391,184	18,62
391,697	19,11
392,21	18,45
392,722	20,03
393,235	18,43
393,747	19,78
394,259	19,79
394,771	18,77
395,283	18
395,795	17,33
396,307	16,39
396,818	15,18
397,33	18,85
397,841	15,05
398,353	14,46
398,864	13,47
399,375	15,85
399,886	14,42
400,397	14,81
400,907	14,92
401,418	14,39
401,928	11,59
402,439	14,31
402,949	12,49
403,459	13,43
403,969	12,76
404,479	11,98
404,989	11,98
405,498	12,22
406,008	12,66
406,517	11,15
407,027	10,34
407,536	11,53
408,045	10,43
408,554	10,87
409,063	9,96
409,572	9,25
410,08	8,68
410,589	9,08
411,097	8,35
411,606	7,84
412,114	8,21
412,622	7,73
413,13	7,43
413,638	7,6
414,145	6,85
414,653	7,36
415,16	7
415,668	6,74
416,175	6,4
416,682	6,24
417,189	6,03
417,696	6,62
418,203	6,09
418,71	6,27
419,216	6,06
419,723	5,7
420,229	5,22
420,735	5,23
421,242	5,9
421,748	5,47
422,254	5,02
422,759	5,85
423,265	5,41
423,771	5,02
424,276	5,01
424,781	5,27
425,287	4,95
425,792	4,89
426,297	5,03
426,802	4,63
427,306	4,93
427,811	5,07
428,316	4,66
428,82	4,86
429,324	4,83
429,829	4,84
430,333	4,95
430,837	4,76
431,34	5,06
431,844	4,58
432,348	4,83
432,851	4,45
433,355	4,37
433,858	4,44
434,361	4,34
434,864	4,38
435,367	4,35
435,87	4,45
436,373	4,57
436,876	4,36
437,378	4,45
437,88	4,53
438,383	4,56
438,885	4
439,387	4,42
439,889	3,92
440,391	4,32
440,892	4,29
441,394	4,17
441,896	4,25
442,397	3,99
442,898	4,31
443,399	4,1
443,9	4
444,401	4,27
444,902	4,08
445,403	4,03
445,903	4,3
446,404	4,11
446,904	4
447,405	3,98
447,905	3,9
448,405	4,04
448,905	3,89
449,404	4,32
449,904	4,1
450,404	3,86
450,903	3,95
451,403	4,12
451,902	4,3
452,401	3,92
452,9	4,03
453,399	3,84
453,898	3,79
454,396	4,22
454,895	4,09
455,393	4,07
455,892	4,28
456,39	3,98
456,888	4,1
457,386	3,9
457,884	3,8
458,382	3,99
458,879	4,22
459,377	4,17
459,874	4,23
460,372	3,93
460,869	3,98
461,366	3,99
461,863	4,01
462,36	4,07
462,857	3,85
463,353	3,77
463,85	3,91
464,346	4,01
464,843	3,97
465,339	4,07
465,835	3,93
466,331	4
466,827	4,35
467,323	3,97
467,818	3,66
468,314	3,98
468,809	4,02
469,305	3,8
469,8	3,93
470,295	3,84
470,79	4,01
471,285	4,04
471,78	3,77
472,274	3,85
472,769	3,79
473,263	3,73
473,758	3,91
474,252	3,99
474,746	3,8
475,24	3,81
475,734	3,95
476,228	3,88
476,721	3,8
477,215	3,53
477,708	3,86
478,202	3,67
478,695	3,84
479,188	3,99
479,681	3,82
480,174	3,69
480,667	3,88
481,159	3,79
481,652	4,06
482,144	3,79
482,637	3,8
483,129	3,98
483,621	3,89
484,113	3,77
484,605	3,89
485,097	3,88
485,588	4,03
486,08	4,03
486,571	3,77
487,063	3,78
487,554	3,66
488,045	3,97
488,536	3,93
489,027	3,95
489,518	4,14
490,008	3,78
490,499	3,91
490,989	4,01
491,48	3,87
491,97	3,99
492,46	3,81
492,95	3,86
493,44	3,98
493,93	4,08
494,419	3,97
494,909	3,96
495,398	4,05
495,888	4
496,377	3,97
496,866	4,29
497,355	4,3
497,844	4,2
498,333	4,29
498,821	4,25
499,31	4,06
499,798	4,37
500,287	4,28
500,775	4,28
501,263	4,5
501,751	4,33
502,239	4,39
502,727	4,41
503,215	4,56
503,702	4,69
504,19	4,58
504,677	4,8
505,164	4,76
505,651	4,8
506,139	5,04
506,625	4,94
507,112	5,18
507,599	5,17
508,086	5,46
508,572	5,53
509,058	5,47
509,545	5,5
510,031	5,65
510,517	5,85
511,003	6,06
511,489	6,1
511,974	6,17
512,46	6,39
512,946	6,48
513,431	6,68
513,916	6,8
514,401	7,01
514,887	7,08
515,371	7,28
515,856	7,42
516,341	7,52
516,826	7,8
517,31	7,88
517,795	8,11
518,279	8,22
518,763	8,46
519,247	8,44
519,731	9,03
520,215	9,28
520,699	9,35
521,182	9,68
521,666	9,79
522,149	10
522,633	10,3
523,116	10,25
523,599	10,68
524,082	10,87
524,565	11,2
525,048	11,49
525,53	11,57
526,013	11,75
526,495	12,19
526,978	12,32
527,46	12,27
527,942	12,73
528,424	12,83
528,906	12,84
529,388	13,1
529,87	13,22
530,351	13,51
530,833	13,28
531,314	13,96
531,795	14,04
532,277	14,19
532,758	14,3
533,238	14,21
533,719	14,46
534,2	14,17
534,681	14,57
535,161	14,88
535,642	14,71
536,122	14,54
536,602	14,85
537,082	14,98
537,562	15,02
538,042	15,18
538,522	15,09
539,001	15,29
539,481	15,2
539,96	15,19
540,44	15,41
540,919	15,6
541,398	15,38
541,877	15,66
542,356	15,58
542,835	15,49
543,313	15,67
543,792	15,75
544,27	15,66
544,749	15,78
545,227	15,87
545,705	16
546,183	15,9
546,661	16,09
547,139	16,03
547,616	16,04
548,094	15,93
548,571	16,24
549,049	16,41
549,526	16,39
550,003	16,09
550,48	16,51
550,957	16,31
551,434	16,35
551,911	16,16
552,387	16,39
552,864	16,2
553,34	16,07
553,817	16,38
554,293	16,3
554,769	16,66
555,245	16,54
555,721	16,26
556,197	16,01
556,672	16,27
557,148	16,48
557,623	16,27
558,099	16,1
558,574	16,11
559,049	16,13
559,524	15,7
559,999	16
560,474	16,18
560,948	15,64
561,423	15,68
561,897	15,61
562,372	15,63
562,846	15,52
563,32	15,31
563,794	15,08
564,268	15,01
564,742	14,83
565,216	14,96
565,69	14,66
566,163	14,79
566,636	14,59
567,11	14,42
567,583	14,19
568,056	14,13
568,529	13,93
569,002	13,82
569,475	13,66
569,947	13,66
570,42	13,64
570,892	13,3
571,365	13,18
571,837	12,94
572,309	12,75
572,781	12,88
573,253	12,78
573,725	12,47
574,197	12,42
574,668	12,19
575,14	12,37
575,611	12
576,082	12,17
576,554	11,89
577,025	11,58
577,496	11,45
577,967	11,34
578,437	11,16
578,908	11,09
579,379	11,25
579,849	11,11
580,319	11,16
580,79	10,86
581,26	10,74
581,73	10,59
582,2	10,45
582,669	10,51
583,139	10,63
583,609	10,32
584,078	10,34
584,548	10,11
585,017	10,17
585,486	10,14
585,955	10,08
586,424	9,86
586,893	9,73
587,362	9,96
587,83	9,78
588,299	9,74
588,767	9,75
589,236	9,59
589,704	9,52
590,172	9,48
590,64	9,45
591,108	9,49
591,576	9,42
592,043	9,33
592,511	9,25
592,978	9,35
593,446	9,28
593,913	9,28
594,38	9,22
594,847	9,02
595,314	9,29
595,781	9,14
596,248	9
596,715	9,06
597,181	9,1
597,647	8,9
598,114	9,01
598,58	8,88
599,046	8,94
599,512	8,87
599,978	8,96
600,444	8,87
600,91	8,87
601,375	8,79
601,841	8,81
602,306	8,66
602,771	8,79
603,236	8,62
603,702	8,4
604,167	8,43
604,631	8,65
605,096	8,52
605,561	8,49
606,025	8,53
606,49	8,43
606,954	8,25
607,418	8,36
607,882	8,11
608,347	8,15
608,81	8,05
609,274	7,97
609,738	7,93
610,202	8,09
610,665	7,91
611,128	7,89
611,592	7,74
612,055	7,92
612,518	7,76
612,981	7,55
613,444	7,55
613,907	7,58
614,369	7,44
614,832	7,47
615,294	7,29
615,757	7,3
616,219	7,23
616,681	7,16
617,143	7,09
617,605	7,17
618,067	7,07
618,529	7,07
618,99	6,94
619,452	6,98
619,913	6,87
620,375	6,79
620,836	6,88
621,297	6,81
621,758	6,77
622,219	6,67
622,68	6,72
623,14	6,6
623,601	6,63
624,061	6,65
624,522	6,54
624,982	6,53
625,442	6,58
625,902	6,53
626,362	6,6
626,822	6,53
627,282	6,57
627,742	6,56
628,201	6,51
628,661	6,54
629,12	6,45
629,579	6,38
630,038	6,33
630,497	6,4
630,956	6,39
631,415	6,54
631,874	6,47
632,332	6,35
632,791	6,33
633,249	6,39
633,708	6,25
634,166	6,21
634,624	6,32
635,082	6,14
635,54	6,28
635,998	6,1
636,455	6,14
636,913	6,02
637,37	5,98
637,828	5,96
638,285	5,76
638,742	5,9
639,199	5,64
639,656	5,68
640,113	5,59
640,57	5,5
641,027	5,52
641,483	5,42
641,94	5,43
642,396	5,41
642,852	5,34
643,309	5,23
643,765	5,22
644,221	5,09
644,676	5,01
645,132	4,97
645,588	4,91
646,043	4,85
646,499	4,81
646,954	4,85
647,409	4,72
647,864	4,7
648,319	4,65
648,774	4,59
649,229	4,6
649,684	4,52
650,139	4,59
650,593	4,46
651,047	4,5
651,502	4,34
651,956	4,47
652,41	4,33
652,864	4,48
653,318	4,32
653,772	4,39
654,225	4,37
654,679	4,33
655,133	4,34
655,586	4,35
656,039	4,31
656,492	4,17
656,946	4,25
657,399	4,21
657,851	4,15
658,304	4,11
658,757	4,17
659,209	4,12
659,662	4,14
660,114	4,02
660,567	4,03
661,019	3,98
661,471	3,94
661,923	3,94
662,375	3,88
662,826	3,97
663,278	3,87
663,73	3,9
664,181	3,91
664,632	3,88
665,084	3,8
665,535	3,96
665,986	3,91
666,437	3,81
666,888	3,85
667,338	3,94
667,789	3,87
668,24	3,86
668,69	3,83
669,14	3,93
669,591	3,95
670,041	4
670,491	4,03
670,941	4,05
671,391	4,01
671,84	4,12
672,29	4,17
672,74	4,22
673,189	4,21
673,638	4,25
674,088	4,31
674,537	4,37
674,986	4,36
675,435	4,54
675,883	4,54
676,332	4,56
676,781	4,66
677,229	4,65
677,678	4,72
678,126	4,8
678,574	4,91
679,022	4,98
679,47	4,99
679,918	5,06
680,366	5,1
680,814	5,21
681,261	5,32
681,709	5,4
682,156	5,4
682,604	5,44
683,051	5,56
683,498	5,53
683,945	5,67
684,392	5,73
684,839	5,73
685,286	5,88
685,732	5,86
686,179	5,92
686,625	5,99
687,071	6,05
687,518	6,11
687,964	6,22
688,41	6,18
688,856	6,34
689,301	6,45
689,747	6,52
690,193	6,77
690,638	6,74
691,084	6,9
691,529	7,22
691,974	7,37
692,419	7,67
692,864	7,87
693,309	8,13
693,754	8,41
694,199	8,79
694,643	9,08
695,088	9,42
695,532	9,83
695,977	10,26
696,421	10,68
696,865	10,96
697,309	11,45
697,753	11,77
698,197	12,32
698,64	12,77
699,084	13,23
699,527	13,79
699,971	14,35
700,414	14,95
700,857	15,36
701,3	15,79
701,743	16,5
702,186	16,81
702,629	17,45
703,072	18,05
703,515	18,68
703,957	19,23
704,399	19,71
704,842	20,48
705,284	20,94
705,726	21,68
706,168	22,2
706,61	22,51
707,052	23,13
707,494	23,74
707,935	24,53
708,377	24,73
708,818	25,48
709,26	26,11
709,701	26,79
710,142	27,31
710,583	28,02
711,024	28,56
711,465	29,1
711,905	29,7
712,346	30,35
712,787	31
713,227	31,56
713,667	32,19
714,108	32,68
714,548	33,57
714,988	34,12
715,428	34,76
715,868	35,15
716,307	35,75
716,747	36,72
717,186	36,87
717,626	37,73
718,065	38,33
718,504	38,99
718,944	39,28
719,383	40,14
719,822	40,91
720,261	41,47
720,699	41,71
721,138	42,58
721,576	43,28
722,015	43,6
722,453	44,12
722,892	44,68
723,33	45,1
723,768	45,92
724,206	46,21
724,644	47,05
725,081	47,58
725,519	47,82
725,957	48,53
726,394	48,96
726,832	49,42
727,269	50,18
727,706	50,38
728,143	50,88
728,58	51,31
729,017	52,09
729,454	51,87
729,89	52,72
730,327	53,05
730,764	53,68
731,2	53,86
731,636	54,19
732,072	54,61
732,509	54,98
732,945	55,19
733,38	55,55
733,816	55,67
734,252	56,16
734,688	56,45
735,123	56,86
735,559	57,24
735,994	57,62
736,429	57,82
736,864	58,05
737,299	58,19
737,734	58,57
738,169	58,73
738,604	59,22
739,038	59,46
739,473	59,62
739,907	59,83
740,342	59,99
740,776	60,1
741,21	60,22
741,644	60,03
742,078	60,57
742,512	60,83
742,946	61,08
743,379	61,22
743,813	61,27
744,246	61,38
744,68	61,39
745,113	61,45
745,546	61,81
745,979	61,89
746,412	61,86
746,845	62,45
747,278	61,99
747,711	62,21
748,143	62,49
748,576	62,42
749,008	62,51
749,441	62,6
749,873	62,43
750,305	63,02
750,737	62,66
751,169	62,48
751,601	62,83
752,032	62,67
752,464	63,09
752,896	62,98
753,327	62,95
753,758	63,13
754,19	63,36
754,621	63,19
755,052	63,52
755,483	63,05
755,914	63,08
756,344	63,09
756,775	63,46
757,206	63,03
757,636	63,39
758,066	63,2
758,497	63,27
758,927	63,54
759,357	63,61
759,787	63,26
760,217	63,32
760,647	63,45
761,076	63,32
761,506	63,3
761,935	63,05
762,365	63,28
762,794	63,45
763,223	63,47
763,653	63,33
764,082	63,54
764,51	63,31
764,939	63,25
765,368	63,49
765,797	63,49
766,225	63,51
766,654	63,38
767,082	63,46
767,51	63,25
767,938	63,28
768,367	63,26
768,795	63,25
769,222	63,44
769,65	63,06
770,078	63,36
770,505	63,17
770,933	63,11
771,36	63,57
771,788	63,29
772,215	63,62
772,642	63,46
773,069	63,18
773,496	63,41
773,923	63,22
774,349	63,13
774,776	63,21
775,203	62,87
775,629	63,06
776,055	63,48
776,482	63,72
776,908	63,19
777,334	63,09
777,76	63,13
778,186	63
778,611	63,27
779,037	63,47
779,463	62,84
779,888	63,38
780,314	63,03
780,739	63,17
781,164	63,3
781,589	62,99
782,014	63,17
782,439	63,17
782,864	62,85
783,289	63,36
783,713	63,06
784,138	63,2
784,562	63,18
784,987	63,11
785,411	63,26
785,835	63,06
786,259	62,94
786,683	62,91
787,107	63,29
787,531	63,04
787,954	63,23
788,378	63,33
788,802	63,36
789,225	62,99
789,648	63,17
790,071	63,14
790,495	63,42
790,918	63,6
791,34	63,34
791,763	63,13
792,186	63,24
792,609	63,42
793,031	63,19
793,454	63,32
793,876	62,97
794,298	63,54
794,721	63,27
795,143	63,03
795,565	62,9
795,986	63,21
796,408	63,11
796,83	63
797,252	63,32
797,673	63,24
798,094	63,16
798,516	63,06
798,937	63,16
799,358	63,22
799,779	63,1
800,2	63,01
800,621	63,28
801,042	63,21
801,462	63,2
801,883	63,27
802,303	62,85
802,724	63,18
803,144	63,09
803,564	62,84
803,984	63,36
804,404	63,2
804,824	63,17
805,244	63,43
805,664	63,11
806,084	63,14
806,503	63,45
806,923	63,3
807,342	63,06
807,761	62,98
808,18	63,51
808,599	62,95
809,018	63,16
809,437	63,29
809,856	63,19
810,275	62,96
810,693	63,22
811,112	62,96
811,53	63,64
811,949	63,25
812,367	62,8
812,785	63,33
813,203	63,39
813,621	63,25
814,039	63,12
814,457	63,24
814,874	63,1
815,292	63,28
815,709	63,09
816,127	63,11
816,544	63,22
816,961	62,93
817,378	62,91
817,795	63,11
818,212	63,26
818,629	62,97
819,046	63,19
819,462	63,11
819,879	63,22
820,295	63,11
820,712	63,21
821,128	63,17
821,544	63
821,96	63,11
822,376	63,25
822,792	63,05
823,208	63,17
823,624	63,1
824,039	63,3
824,455	63,36
824,87	63,02
825,286	63,37
825,701	63,23
826,116	63,03
826,531	63,17
826,946	63,03
827,361	63,43
827,776	63,26
828,19	63,24
828,605	63,04
829,02	63,11
829,434	63,1
829,848	63,42
830,263	63,26
830,677	63,27
831,091	63,21
831,505	63,5
831,919	63,28
832,332	63,11
832,746	62,76
833,16	63,36
833,573	63,32
833,987	63,11
834,4	63,46
834,813	63,21
835,226	63,01
835,639	63,29
836,052	63,16
836,465	63,54
836,878	63,1
837,29	62,64
837,703	63,43
838,116	63,48
838,528	63,4
838,94	63,24
839,352	63,22
839,765	63,21
840,177	63,43
840,589	63,09
841	62,94
841,412	63,45
841,824	63,09
842,235	63,41
842,647	63,08
843,058	62,94
843,47	63,22
843,881	63,46
844,292	63,11
844,703	63,2
845,114	63,22
845,525	63,27
845,935	63,31
846,346	63,89
846,757	63,41
847,167	63,28
847,577	63,43
847,988	63,25
848,398	63,42
848,808	63,43
849,218	63,04
849,628	62,89
850,038	63,18
850,448	63,19
850,857	63,27
851,267	63,04
851,676	63,33
852,086	63,02
852,495	63,14
852,904	63,34
853,313	63,43
853,722	63,42
854,131	63,34
854,54	63,34
854,949	63
855,357	63,26
855,766	62,98
856,174	62,99
856,583	63,25
856,991	62,99
857,399	63,19
857,807	63,3
858,215	63,32
858,623	63,35
859,031	63,33
859,439	63,3
859,846	62,8
860,254	63,17
860,661	62,86
861,069	63,49
861,476	63,31
861,883	63,13
862,29	63,29
862,697	63,58
863,104	62,95
863,511	63,05
863,918	63,22
864,325	63,13
864,731	63,54
865,138	63,34
865,544	63,26
865,95	64,07
866,357	63,07
866,763	63,49
867,169	63,51
867,575	63,29
867,98	63,26
868,386	63,38
868,792	63,04
869,197	63,54
869,603	63,17
870,008	62,9
870,414	63,29
870,819	63,04
871,224	63,76
871,629	63,12
872,034	63,29
872,439	63,29
872,844	63,54
873,248	63,25
873,653	63,38
874,057	63,42
874,462	63,14
874,866	63,67
875,27	63,79
875,674	63,33
876,078	63,28
876,482	63,55
876,886	63,94
877,29	63,59
877,694	63,11
878,097	63,13
878,501	63,22
878,904	63,37
879,308	63,43
879,711	63,17
880,114	63,42
880,517	63,66
880,92	63,73
881,323	63,01
881,726	63,19
882,128	63,38
882,531	63,53
882,934	63,43
883,336	63,31
883,738	63,32
884,141	63,07
884,543	63,3
884,945	63,15
885,347	63,43
885,749	63,04
886,151	63,58
886,552	63,84
886,954	63,04
887,355	63,08
887,757	63,26
888,158	63,4
888,56	63,27
888,961	63,23
889,362	63,18
889,763	63,53
890,164	63,64
890,565	63,52
890,965	63,33
891,366	63,32
891,767	63,34
892,167	63,57
892,567	63,52
892,968	63,22
893,368	63,63
893,768	63,46
894,168	63,45
894,568	63,26
894,968	63,91
895,368	63,17
895,767	63,72
896,167	63,45
896,566	63,39
896,966	63,28
897,365	63,73
897,764	63,58
898,164	63,63
898,563	64,03
898,962	63,59
899,361	62,96
899,759	63,42
900,158	63,83
900,557	63,51
900,955	63,32
901,354	63,17
901,752	63,13
902,15	63,76
902,548	63,65
902,947	63,24
903,345	63,73
903,742	63,17
904,14	63,65
904,538	63,63
904,936	63,69
905,333	63,46
905,731	62,69
906,128	63,98
906,525	62,95
906,923	63,41
907,32	63,46
907,717	63,26
908,114	63,57
908,511	63,84
908,907	63,61
909,304	63,69
909,701	63,65
910,097	63,28
910,494	63,29
910,89	63,42
911,286	63,53
911,682	63,72
912,078	63,52
912,474	63,26
912,87	63,35
913,266	63,57
913,662	63,38
914,058	63,49
914,453	63,49
914,849	63,4
915,244	63,76
915,639	63,75
916,034	63,49
916,43	62,95
916,825	63,03
917,22	63,33
917,614	63,29
918,009	63,5
918,404	63,2
918,798	63,35
919,193	63,46
919,587	63,41
919,982	63,66
920,376	63,24
920,77	62,98
921,164	63,7
921,558	63,36
921,952	63,36
922,346	63,51
922,74	63,15
923,133	63,31
923,527	62,94
923,92	63,31
924,314	63,03
924,707	63,15
925,1	63,24
925,493	63,9
925,886	63,15
926,279	63,04
926,672	63,2
927,065	63,84
927,457	63,01
927,85	62,97
928,243	63,29
928,635	63,51
929,027	63,28
929,42	63,33
929,812	62,92
930,204	62,89
930,596	62,81
930,988	63,73
931,379	62,98
931,771	62,92
932,163	62,95
932,554	62,73
932,946	63,09
933,337	63,4
933,729	63,18
934,12	63,06
934,511	63,46
934,902	62,92
935,293	63,32
935,684	63,48
936,075	62,94
936,465	63,15
936,856	62,44
937,246	63,25
937,637	63,24
938,027	63,54
938,417	62,95
938,808	63,45
939,198	62,95
939,588	62,83
939,978	62,78
940,368	62,79
940,757	63,2
941,147	63,37
941,537	62,88
941,926	62,53
942,315	62,96
942,705	63,73
943,094	63,19
943,483	63,04
943,872	62,55
944,261	62,25
944,65	62,51
945,039	62,3
945,428	62,59
945,816	63
946,205	62,63
946,593	63,06
946,982	61,98
947,37	62,85
947,758	63,68
948,146	62,61
948,534	62,11
948,922	62,31
949,31	62,19
949,698	62,07
950,086	62,27
950,473	62,63
950,861	62,22
951,248	62,24
951,636	62,5
952,023	62,79
952,41	62,08
952,797	61,71
953,184	62,56
953,571	62,79
953,958	61,84
954,345	62,38
954,731	61,76
955,118	62,46
955,505	62,01
955,891	61,98
956,277	62
956,664	62,23
957,05	60,9
957,436	61,62
957,822	61,48
958,208	62,04
958,594	61,62
958,979	62,33
959,365	61,32
959,751	62,28
960,136	61,89
960,522	61,68
960,907	62,09
961,292	62,18
961,677	61,17
962,062	61,49
962,447	61,55
962,832	61,59
963,217	62,03
963,602	61,42
963,986	61,3
964,371	61,1
964,756	61,79
965,14	61,65
965,524	61,19
965,908	61,49
966,293	61,46
966,677	61,07
967,061	61,48
967,445	60,97
967,828	61,87
968,212	61,8
968,596	61,29
968,979	61,56
969,363	61,79
969,746	61,72
970,129	61,92
970,513	61,56
970,896	61,56
971,279	61,29
971,662	61,57
972,045	61,59
972,428	61,2
972,81	61,98
973,193	61,86
973,575	61,83
973,958	61,97
974,34	61,73
974,723	61,75
975,105	61,71
975,487	61,98
975,869	61,48
976,251	61,53
976,633	61,82
977,015	61,6
977,396	61,58
977,778	61,45
978,16	61,78
978,541	61,15
978,922	62,12
979,304	61,35
979,685	61,6
980,066	61,1
980,447	61,84
980,828	61,55
981,209	61,27
981,59	61,77
981,97	61,75
982,351	61,51
982,732	61,74
983,112	61,79
983,493	61,4
983,873	61,26
984,253	61,62
984,633	61,36
985,013	62,08
985,393	61,1
985,773	61,83
986,153	61,72
986,533	61,75
986,912	61,66
987,292	61,55
987,671	61,81
988,051	61,77
988,43	61,79
988,809	62,17
989,188	61,82
989,567	61,73
989,946	61,47
990,325	61,93
990,704	62,02
991,083	61,36
991,461	61,89
991,84	62,04
992,218	62,33
992,597	61,28
992,975	61,62
993,353	62,2
993,732	61,66
994,11	62,13
994,488	62,14
994,866	62,37
995,243	61,47
995,621	61,29
995,999	61,7
996,376	62,64
996,754	62,22
997,131	61,94
997,509	61,88
997,886	62,14
998,263	61,55
998,64	62,53
999,017	61,81
999,394	62,4
999,771	62,34
1000,148	61,8
1000,524	61,6
1000,901	61,98
1001,277	62,75
1001,654	62,05
1002,03	62,65
1002,406	62,35
1002,783	62,8
1003,159	62,45
1003,535	62,18
1003,911	62,16
1004,286	62,5
1004,662	62,52
1005,038	62,91
1005,414	62,06
1005,789	62,9
1006,164	62,71
1006,54	62,37
1006,915	62,26
1007,29	62,46
1007,665	62,3
1008,04	62,29
1008,415	62,59
1008,79	62,69
1009,165	63,17
1009,54	62,85
1009,914	62,71
1010,289	62,01
1010,663	62,56
1011,038	62,86
1011,412	62,17
1011,786	62,37
1012,16	62,96
1012,535	62,11
1012,909	62,71
1013,282	62,94
1013,656	62,26
1014,03	62,45
1014,404	62,41
1014,777	62,26
1015,151	62,84
1015,524	62,39
1015,897	63
1016,271	62,5
1016,644	63,56
1017,017	63,21
1017,39	62,83
1017,763	62,26
1018,136	61,93
1018,508	62,24
1018,881	62,62
1019,254	62,36
1019,626	62,43
1019,999	62,63
1020,371	63,46
1020,743	63,86
1021,116	62,82
1021,488	62,63
1021,86	63,11
1022,232	62,88
1022,604	61,98
1022,975	63,37
1023,347	63,09
1023,719	61,98
1024,09	64,52
1024,462	63
1024,833	62,8
1025,204	62,64
1025,576	63,58
1025,947	63,64
1026,318	63,6
1026,689	63,06
1027,06	62,96
1027,431	63,24
1027,801	63,94
1028,172	63,07
1028,543	63,63
1028,913	63,72
1029,284	62,05
1029,654	62,85
1030,024	63,18
1030,394	62,62
1030,764	63,09
1031,135	63,33
1031,504	63,61
1031,874	62,44
1032,244	63,35
1032,614	63,61
1032,983	63,21
1033,353	62,52
1033,722	63,32
1034,092	62,22
1034,461	63,62
1034,83	62,64
1035,2	63,34
1035,569	63,95
1035,938	64,22
1036,307	63,2
1036,675	63,83
1037,044	63,38
1037,413	64,2
1037,781	63,55
1038,15	62,56
1038,518	63,13
1038,887	63,45
1039,255	63,78
1039,623	62,91
1039,991	63,88
1040,359	63,27
1040,727	64,31
1041,095	63,52
1041,463	65,3
1041,831	63,99
1042,198	63,72
1042,566	63,77
1042,933	63,8
1043,301	64,24
1043,668	63,62
1044,035	63,31
1044,402	63,88
1044,77	63,87
1045,137	65,21
1045,503	63,19
1045,87	63,44
1046,237	63,47
1046,604	64,66
1046,97	63,82
1047,337	65,29
1047,703	63,87
1048,07	64,18
1048,436	63,68
1048,802	64,98
1049,168	64,89
1049,534	64,11
1049,9	63,61
1050,266	64,01
1050,632	63,65
1050,998	64,17
1051,364	63,65
1051,729	64,18
1052,095	63,86
1052,46	63,67
1052,825	64,46
1053,191	64,54
1053,556	63,94
1053,921	64,97
1054,286	63,92
1054,651	64,41
1055,016	64,12
1055,381	64,98
1055,745	64,69
1056,11	64,22
1056,475	64,22
1056,839	64,18
1057,203	63,55
1057,568	65,66
1057,932	65,13
1058,296	64,39
1058,66	65,36
1059,024	64,44
1059,388	63,98
1059,752	64,62
1060,116	65,48
1060,48	64,83
1060,843	64,78
1061,207	65,96
1061,57	64,21
1061,934	65,53
1062,297	65,07
1062,66	64,98
1063,023	63,99
1063,386	65,45
1063,749	65,15
1064,112	65,41
1064,475	64,81
1064,838	64,22
1065,201	64,79
1065,563	66,52
1065,926	64,77
1066,288	64,63
1066,651	64,27
1067,013	64,15
1067,375	64,52
1067,737	65,01
1068,099	64,67
1068,461	64,68
1068,823	63,68
1069,185	64,81
1069,547	63,88
1069,909	64,49
1070,27	64,84
1070,632	63,75
1070,993	64,51
1071,355	63,55
1071,716	64,76
1072,077	63,91
1072,438	65,9
1072,799	63,55
1073,16	65,07
1073,521	65,16
1073,882	65,16
1074,243	66,19
1074,603	65,3
1074,964	66,5
1075,325	65,09
1075,685	62,57
1076,045	66,15
1076,406	63,9
1076,766	65,49
1077,126	65,02
1077,486	64,33
1077,846	66,52
1078,206	65,32
1078,566	62,43
1078,925	65,17
1079,285	65,46
1079,645	63,57
1080,004	64,95
1080,364	63,55
1080,723	64,75
1081,082	64,23
1081,442	64,42
1081,801	66,06
1082,16	64,11
1082,519	63,57
1082,878	65,31
1083,237	64,6
1083,595	64,86
1083,954	66,56
1084,313	64,57
1084,671	64,69
1085,03	62,98
1085,388	66,51
1085,746	64,18
1086,104	64,84
1086,463	64,65
1086,821	65,44
1087,179	62,65
1087,537	64,35
1087,894	66,61
1088,252	65,31
1088,61	66,67
1088,967	63,84
1089,325	65,31
1089,682	65,25
1090,04	65,15
1090,397	66,36
1090,754	65,53
1091,111	65,32
1091,469	66,14
1091,826	63,26
1092,182	64,39
1092,539	65,66
1092,896	68,73
1093,253	64,61
1093,609	66,96
1093,966	64,99
1094,322	65,14
1094,679	64,94
1095,035	65,73
1095,391	66,7
1095,748	66,52
1096,104	65,01
1096,46	62,81
1096,816	66,15
1097,171	65,17
1097,527	62,4
1097,883	66,47
1098,239	66,39
1098,594	64,03
1098,95	65,18
1099,305	64,87
1099,66	66,67
1100,016	66,15
1100,371	63,23
1100,726	64,18
1101,081	65,66
1101,436	66,48
1101,791	64,78
1102,146	65,73
1102,5	66,18
1102,855	64,46
1103,21	62,95
1103,564	66,3
1103,918	65,8
1104,273	66,76
1104,627	65,64
1104,981	66,47
1105,335	66,13
1105,69	64,09
1106,043	69,09
1106,397	66,7
1106,751	67,63
1107,105	65,42
1107,459	64,19
1107,812	67,17
1108,166	66,4
1108,519	65,4
1108,873	67,37
1109,226	65,96
1109,579	68,74
1109,932	62,69
1110,285	69,6
1110,638	63,54
1110,991	65,93
1111,344	68,12
1111,697	68,17
1112,05	67,84
1112,402	69,58
1112,755	66,57
1113,107	66,29
1113,46	65,49
1113,812	67,2
1114,164	65,13
1114,517	68,42
1114,869	102,8
1115,221	96,49
1115,573	88,46
1115,924	86,55
