Data from A6__Relative__4__00014.txt Node

Date: Wed Jan 31 17:55:15 CET 2024
User: diatiterra
Spectrometer: HDX00911
Trigger mode: 0
Integration Time (sec): 6,000000E-3
Scans to average: 2
Nonlinearity correction enabled: false
Boxcar width: 0
Storing dark spectrum: false
XAxis mode: Wavelengths
Number of Pixels in Spectrum: 2068
>>>>>Begin Spectral Data<<<<<
194,468	70,75
195,025	62,73
195,581	69,51
196,138	97,44
196,694	58,02
197,251	56,57
197,807	51,97
198,363	48,4
198,919	46,9
199,474	43,01
200,03	57,38
200,586	57,59
201,141	40,97
201,696	46,98
202,251	43,56
202,806	44,76
203,361	48,89
203,916	43,4
204,471	43,07
205,025	46,77
205,58	51,07
206,134	46,8
206,688	43,85
207,242	45,13
207,796	48,12
208,35	49,64
208,904	50
209,457	36,46
210,011	35,82
210,564	51,76
211,117	49,62
211,67	48,88
212,223	50,34
212,776	43,95
213,329	40,67
213,881	49,02
214,434	43,42
214,986	48,35
215,538	53,31
216,09	40,14
216,642	61,98
217,194	52,65
217,746	51,13
218,297	46,95
218,849	52,94
219,4	50,84
219,951	41,94
220,502	57,43
221,053	50,76
221,604	50
222,155	42,86
222,705	40,07
223,256	54,1
223,806	48,43
224,356	49,62
224,906	53,63
225,456	53,1
226,006	44,84
226,556	39,29
227,106	50,81
227,655	41,67
228,204	44,17
228,754	47,54
229,303	46,07
229,852	39,57
230,401	46,27
230,949	46,04
231,498	41,2
232,047	39,61
232,595	44,14
233,143	51,97
233,691	39,53
234,239	36,07
234,787	46,4
235,335	47,39
235,883	44,06
236,43	46,21
236,978	48,46
237,525	41,61
238,072	40,43
238,619	44,7
239,166	36,88
239,713	43,07
240,26	45,71
240,806	49,65
241,353	45,24
241,899	52,8
242,445	41,97
242,991	50,38
243,537	41,29
244,083	46,18
244,629	46,54
245,174	45,58
245,72	45,93
246,265	40,48
246,81	50,4
247,355	47,22
247,9	41,42
248,445	39,68
248,99	43,94
249,534	47,39
250,079	44,36
250,623	31,11
251,168	44,63
251,712	44,92
252,256	53,28
252,8	48,08
253,343	45,36
253,887	43,55
254,43	47,71
254,974	44,66
255,517	46,92
256,06	50
256,603	37,04
257,146	51,94
257,689	47,64
258,232	50
258,774	50,71
259,317	53,81
259,859	44,04
260,401	53,49
260,943	41,84
261,485	40,43
262,027	54
262,569	48,88
263,11	40,38
263,652	59,84
264,193	43,39
264,734	52,19
265,275	55,74
265,816	45,8
266,357	51,16
266,898	50,77
267,438	55,51
267,979	44,6
268,519	43,66
269,059	52,8
269,6	52,63
270,14	52,42
270,68	50,72
271,219	52,54
271,759	45,49
272,298	47,37
272,838	45,77
273,377	49,21
273,916	41,73
274,455	52,92
274,994	39,6
275,533	44,93
276,072	46,75
276,61	43,12
277,149	47,92
277,687	46,62
278,225	39,67
278,763	54,82
279,301	60,42
279,839	41,94
280,377	42,62
280,914	42,66
281,452	52,99
281,989	43,8
282,526	46,46
283,064	50,84
283,601	42,91
284,137	42,98
284,674	40,83
285,211	48,25
285,747	49,24
286,284	50,45
286,82	42,56
287,356	44,41
287,892	50,39
288,428	47,11
288,964	60,5
289,5	48,76
290,035	47,2
290,571	45,38
291,106	50,81
291,641	49,55
292,176	42,97
292,711	52,85
293,246	39,23
293,781	46,69
294,315	38,03
294,85	50,46
295,384	45,9
295,918	44,85
296,453	40,67
296,987	36,78
297,52	44,63
298,054	46,56
298,588	47,92
299,121	46,64
299,655	46,35
300,188	44,58
300,721	42,28
301,254	40,73
301,787	36,72
302,32	50
302,853	42,4
303,385	38,57
303,918	40,7
304,45	48,85
304,982	43,62
305,514	41,09
306,046	32,23
306,578	41,86
307,11	41,86
307,641	42,67
308,173	45,45
308,704	29,75
309,236	40,6
309,767	45,74
310,298	43,15
310,829	45,22
311,359	43,95
311,89	48,32
312,421	44,14
312,951	39,84
313,481	39,31
314,012	44,78
314,542	52,54
315,072	48,47
315,601	42
316,131	50,79
316,661	41,25
317,19	45,93
317,72	50
318,249	50
318,778	45,31
319,307	49,22
319,836	51,33
320,365	44,78
320,893	47,93
321,422	47,15
321,95	52,26
322,479	48,85
323,007	54,09
323,535	38,57
324,063	50,8
324,591	48
325,118	54,38
325,646	47,06
326,173	46,67
326,701	53,25
327,228	42,24
327,755	42,11
328,282	44,66
328,809	50
329,336	47,24
329,862	45,96
330,389	43,36
330,915	46,85
331,441	41,98
331,968	45,95
332,494	43,56
333,02	42,08
333,545	45,9
334,071	51,65
334,597	34,15
335,122	42,22
335,648	43,53
336,173	39,39
336,698	35,44
337,223	43,01
337,748	44,44
338,272	45,55
338,797	45,65
339,322	39,42
339,846	36,4
340,37	41,94
340,894	37,5
341,419	42,86
341,942	40,21
342,466	45,51
342,99	36,58
343,514	37,32
344,037	41,46
344,56	45,56
345,084	38,36
345,607	33,68
346,13	34,86
346,653	41,33
347,175	36,22
347,698	38,05
348,221	25,36
348,743	40,37
349,265	35,25
349,787	36,2
350,309	32,91
350,831	30,86
351,353	33,84
351,875	34,8
352,397	40,56
352,918	36,18
353,439	40,07
353,961	28,2
354,482	36,84
355,003	35,47
355,524	38,89
356,044	30,11
356,565	35,54
357,086	38,7
357,606	25,82
358,126	29,26
358,646	30,87
359,167	32,16
359,687	32,77
360,206	32,79
360,726	31,75
361,246	38,83
361,765	31,92
362,285	35,75
362,804	35
363,323	31,71
363,842	33,79
364,361	33,58
364,88	33
365,398	33,19
365,917	26,89
366,435	36,46
366,954	31,25
367,472	29,01
367,99	31,04
368,508	29,96
369,026	38,64
369,544	32,02
370,061	30,25
370,579	29,51
371,096	36,7
371,613	27,8
372,131	29,33
372,648	31,89
373,165	32,23
373,681	29,75
374,198	34,57
374,715	28,76
375,231	31,25
375,747	29,14
376,264	26,87
376,78	28,96
377,296	33,09
377,812	27,91
378,327	29,97
378,843	32,76
379,359	32,28
379,874	28,03
380,389	30,13
380,905	25,52
381,42	24,92
381,935	25,91
382,449	25,96
382,964	25,29
383,479	26,58
383,993	27,42
384,508	25,59
385,022	25
385,536	28,03
386,05	24,8
386,564	28,11
387,078	24,76
387,592	25,67
388,105	27,42
388,619	24
389,132	22,36
389,645	23,79
390,158	20,49
390,671	24,24
391,184	22,37
391,697	22,04
392,21	21,22
392,722	19,44
393,235	21,76
393,747	23,15
394,259	21,25
394,771	20,29
395,283	21,25
395,795	18,28
396,307	21,59
396,818	23,16
397,33	17,01
397,841	19,91
398,353	18,82
398,864	19,82
399,375	19,03
399,886	18,57
400,397	18,46
400,907	18,27
401,418	17,19
401,928	15,43
402,439	16,69
402,949	16,12
403,459	15,99
403,969	16
404,479	15,98
404,989	15,12
405,498	14,93
406,008	14,36
406,517	14,08
407,027	13,31
407,536	11,4
408,045	10,87
408,554	12,02
409,063	11,57
409,572	10,57
410,08	10,62
410,589	10,46
411,097	10,23
411,606	9,94
412,114	10,66
412,622	9,52
413,13	9,56
413,638	9,58
414,145	8,65
414,653	8,97
415,16	8,16
415,668	8,14
416,175	7,81
416,682	7,04
417,189	7,37
417,696	8,03
418,203	7,55
418,71	7,16
419,216	7,06
419,723	7,26
420,229	7,17
420,735	6,73
421,242	6,99
421,748	6,9
422,254	6,94
422,759	6,4
423,265	6,36
423,771	6,48
424,276	6,79
424,781	6,71
425,287	6,48
425,792	6,14
426,297	6,37
426,802	6
427,306	5,97
427,811	6,53
428,316	6,24
428,82	6,11
429,324	6,2
429,829	6,05
430,333	5,84
430,837	5,84
431,34	6,2
431,844	5,62
432,348	5,89
432,851	5,52
433,355	6,01
433,858	5,69
434,361	5,36
434,864	5,7
435,367	5,78
435,87	5,99
436,373	5,95
436,876	5,75
437,378	5,84
437,88	5,33
438,383	6,09
438,885	5,75
439,387	5,76
439,889	5,85
440,391	5,6
440,892	5,87
441,394	5,77
441,896	5,73
442,397	5,82
442,898	5,36
443,399	5,43
443,9	5,77
444,401	5,5
444,902	5,35
445,403	5,72
445,903	5,61
446,404	5,68
446,904	5,62
447,405	5,42
447,905	5,85
448,405	5,56
448,905	5,66
449,404	5,66
449,904	5,75
450,404	5,65
450,903	6,04
451,403	5,71
451,902	5,89
452,401	5,99
452,9	5,7
453,399	6,13
453,898	5,68
454,396	5,9
454,895	5,7
455,393	6,12
455,892	5,61
456,39	5,96
456,888	5,96
457,386	5,78
457,884	6,19
458,382	6,07
458,879	5,93
459,377	6,17
459,874	5,98
460,372	5,91
460,869	5,99
461,366	5,83
461,863	6,04
462,36	6,04
462,857	6,22
463,353	5,92
463,85	6,13
464,346	6,1
464,843	6,02
465,339	6,14
465,835	6,06
466,331	6,1
466,827	5,96
467,323	5,95
467,818	6,12
468,314	5,88
468,809	6,03
469,305	5,84
469,8	5,83
470,295	6,05
470,79	6
471,285	6,1
471,78	5,69
472,274	6,05
472,769	5,67
473,263	5,56
473,758	6,44
474,252	5,93
474,746	6
475,24	5,98
475,734	6,01
476,228	6,1
476,721	6,16
477,215	6,14
477,708	5,94
478,202	6,12
478,695	6,23
479,188	5,91
479,681	6,08
480,174	6,13
480,667	6,23
481,159	6,25
481,652	6,17
482,144	6,24
482,637	6,29
483,129	6,02
483,621	6,2
484,113	6,25
484,605	6,59
485,097	6,31
485,588	6,07
486,08	6,18
486,571	6,36
487,063	6,37
487,554	6,35
488,045	6,53
488,536	6,39
489,027	6,43
489,518	6,64
490,008	6,43
490,499	6,47
490,989	6,54
491,48	6,5
491,97	6,4
492,46	6,62
492,95	6,95
493,44	6,91
493,93	6,95
494,419	7,05
494,909	6,92
495,398	7,14
495,888	7,17
496,377	7,36
496,866	7,41
497,355	7,69
497,844	7,45
498,333	7,58
498,821	7,79
499,31	7,54
499,798	7,89
500,287	7,8
500,775	7,95
501,263	8,18
501,751	8,38
502,239	8,6
502,727	8,79
503,215	8,82
503,702	9,12
504,19	8,9
504,677	9,59
505,164	9,82
505,651	9,72
506,139	9,57
506,625	9,82
507,112	10,28
507,599	10,5
508,086	10,75
508,572	11,28
509,058	11,32
509,545	11,12
510,031	11,55
510,517	11,76
511,003	11,86
511,489	12,22
511,974	12,67
512,46	12,68
512,946	13,35
513,431	13,36
513,916	13,35
514,401	13,76
514,887	14,09
515,371	14,8
515,856	15,01
516,341	15,13
516,826	15,85
517,31	16,06
517,795	16,38
518,279	16,48
518,763	17,05
519,247	17,59
519,731	17,76
520,215	18,03
520,699	18,47
521,182	18,66
521,666	19,34
522,149	19,45
522,633	20,13
523,116	20,3
523,599	20,98
524,082	20,71
524,565	21,1
525,048	21,61
525,53	21,36
526,013	22,11
526,495	22,36
526,978	22,49
527,46	22,8
527,942	23,18
528,424	23,63
528,906	23,42
529,388	23,97
529,87	23,99
530,351	24,07
530,833	24,74
531,314	24,64
531,795	24,82
532,277	25,12
532,758	25,43
533,238	25,4
533,719	25,41
534,2	25,58
534,681	25,65
535,161	26,15
535,642	26,51
536,122	25,93
536,602	26,37
537,082	26,59
537,562	26,51
538,042	26,43
538,522	26,2
539,001	26,76
539,481	26,99
539,96	26,89
540,44	26,93
540,919	27,24
541,398	26,49
541,877	26,97
542,356	26,98
542,835	26,62
543,313	26,91
543,792	27,5
544,27	26,92
544,749	27,5
545,227	27,48
545,705	27,37
546,183	27,76
546,661	27,39
547,139	27,6
547,616	27,71
548,094	28,04
548,571	27,84
549,049	28,23
549,526	27,4
550,003	28,02
550,48	27,8
550,957	27,74
551,434	28,03
551,911	27,74
552,387	27,9
552,864	27,88
553,34	28,07
553,817	27,8
554,293	27,96
554,769	27,74
555,245	27,93
555,721	28,14
556,197	28,49
556,672	27,8
557,148	27,78
557,623	28,06
558,099	27,81
558,574	28,22
559,049	27,48
559,524	27,74
559,999	27,61
560,474	26,94
560,948	27,18
561,423	27,24
561,897	27,32
562,372	27,42
562,846	26,97
563,32	26,68
563,794	26,89
564,268	26,76
564,742	26,76
565,216	26,36
565,69	26,26
566,163	26,49
566,636	25,91
567,11	25,99
567,583	25,32
568,056	25,8
568,529	25,6
569,002	25,02
569,475	25,01
569,947	24,65
570,42	24,96
570,892	24,41
571,365	24,18
571,837	24,24
572,309	24,05
572,781	23,76
573,253	23,26
573,725	23,42
574,197	23,01
574,668	22,95
575,14	22,58
575,611	22,86
576,082	22,31
576,554	22,01
577,025	21,91
577,496	21,93
577,967	21,62
578,437	21,57
578,908	21,81
579,379	21,28
579,849	21,2
580,319	21
580,79	20,84
581,26	20,78
581,73	20,38
582,2	20,37
582,669	20,11
583,139	20,36
583,609	20,11
584,078	20,17
584,548	19,67
585,017	19,84
585,486	19,47
585,955	19,57
586,424	19,58
586,893	19,23
587,362	19,12
587,83	19,32
588,299	19,01
588,767	19,37
589,236	19,06
589,704	18,68
590,172	18,81
590,64	18,63
591,108	18,73
591,576	18,59
592,043	18,3
592,511	18,25
592,978	18,48
593,446	18,22
593,913	18
594,38	17,95
594,847	17,86
595,314	17,81
595,781	17,9
596,248	17,82
596,715	17,68
597,181	17,65
597,647	18,08
598,114	17,68
598,58	17,81
599,046	17,66
599,512	17,59
599,978	17,52
600,444	17,32
600,91	17,64
601,375	17,53
601,841	17,57
602,306	17,43
602,771	17,42
603,236	17,23
603,702	17,13
604,167	17,26
604,631	16,91
605,096	16,98
605,561	16,91
606,025	16,78
606,49	16,84
606,954	16,8
607,418	16,69
607,882	16,65
608,347	16,38
608,81	16,34
609,274	16,12
609,738	15,97
610,202	15,97
610,665	15,98
611,128	15,71
611,592	15,65
612,055	15,55
612,518	15,73
612,981	15,51
613,444	15,38
613,907	15,21
614,369	15
614,832	15,3
615,294	14,89
615,757	14,87
616,219	15
616,681	14,57
617,143	14,6
617,605	14,54
618,067	14,51
618,529	14,51
618,99	14,26
619,452	14,36
619,913	14,14
620,375	14,05
620,836	14,15
621,297	14,05
621,758	13,89
622,219	13,88
622,68	13,64
623,14	13,64
623,601	13,8
624,061	13,74
624,522	13,85
624,982	13,65
625,442	13,77
625,902	13,61
626,362	13,6
626,822	13,49
627,282	13,62
627,742	13,54
628,201	13,46
628,661	13,57
629,12	13,6
629,579	13,26
630,038	13,43
630,497	13,54
630,956	13,32
631,415	13,29
631,874	13,3
632,332	13,2
632,791	13,22
633,249	13,1
633,708	13,19
634,166	12,98
634,624	13,01
635,082	13
635,54	12,87
635,998	12,71
636,455	12,64
636,913	12,62
637,37	12,18
637,828	12,3
638,285	12,1
638,742	11,97
639,199	11,96
639,656	11,65
640,113	11,62
640,57	11,57
641,027	11,37
641,483	11,28
641,94	11,09
642,396	11
642,852	10,7
643,309	10,8
643,765	10,59
644,221	10,39
644,676	10,24
645,132	10,12
645,588	9,94
646,043	9,7
646,499	9,76
646,954	9,47
647,409	9,59
647,864	9,55
648,319	9,27
648,774	9,39
649,229	9,17
649,684	9
650,139	9,14
650,593	8,98
651,047	8,94
651,502	8,77
651,956	8,9
652,41	8,67
652,864	8,65
653,318	8,75
653,772	8,58
654,225	8,69
654,679	8,47
655,133	8,46
655,586	8,56
656,039	8,48
656,492	8,4
656,946	8,4
657,399	8,25
657,851	8,26
658,304	8,1
658,757	8,11
659,209	7,95
659,662	7,83
660,114	7,78
660,567	7,89
661,019	7,73
661,471	7,57
661,923	7,56
662,375	7,52
662,826	7,46
663,278	7,45
663,73	7,28
664,181	7,37
664,632	7,28
665,084	7,29
665,535	7,32
665,986	7,25
666,437	6,99
666,888	7,04
667,338	7,06
667,789	7,12
668,24	7,18
668,69	7,15
669,14	7,24
669,591	7,26
670,041	7,33
670,491	7,29
670,941	7,19
671,391	7,42
671,84	7,31
672,29	7,32
672,74	7,47
673,189	7,66
673,638	7,73
674,088	7,9
674,537	7,82
674,986	7,89
675,435	8,1
675,883	8,23
676,332	8,2
676,781	8,27
677,229	8,53
677,678	8,71
678,126	8,75
678,574	8,92
679,022	8,99
679,47	9
679,918	9,32
680,366	9,38
680,814	9,47
681,261	9,56
681,709	9,9
682,156	9,95
682,604	10,13
683,051	10,12
683,498	10,4
683,945	10,39
684,392	10,67
684,839	10,86
685,286	10,95
685,732	11,1
686,179	11,44
686,625	11,45
687,071	11,55
687,518	11,77
687,964	11,96
688,41	12,18
688,856	12,49
689,301	12,77
689,747	13
690,193	13,39
690,638	13,79
691,084	14,14
691,529	14,72
691,974	15,05
692,419	15,72
692,864	16,04
693,309	16,72
693,754	17,04
694,199	17,62
694,643	18,27
695,088	18,86
695,532	19,56
695,977	20,07
696,421	20,69
696,865	21,02
697,309	21,71
697,753	22,04
698,197	23,03
698,64	23,64
699,084	24,41
699,527	24,62
699,971	25,32
700,414	25,92
700,857	26,33
701,3	26,96
701,743	27,78
702,186	27,97
702,629	28,6
703,072	29,46
703,515	29,34
703,957	30,28
704,399	30,58
704,842	31,12
705,284	31,54
705,726	32,16
706,168	32,37
706,61	33,01
707,052	33,34
707,494	33,73
707,935	34,15
708,377	34,87
708,818	35,2
709,26	35,2
709,701	35,94
710,142	36,45
710,583	36,57
711,024	36,85
711,465	37,46
711,905	37,6
712,346	37,77
712,787	38,06
713,227	38,86
713,667	39,09
714,108	39,41
714,548	39,39
714,988	39,85
715,428	40,38
715,868	40,69
716,307	40,9
716,747	41,06
717,186	41,59
717,626	41,56
718,065	42,18
718,504	42,22
718,944	42,65
719,383	42,56
719,822	43,03
720,261	43,13
720,699	43,6
721,138	43,32
721,576	43,77
722,015	43,81
722,453	44,27
722,892	44,33
723,33	45,08
723,768	45,27
724,206	45,04
724,644	44,99
725,081	45,24
725,519	45,76
725,957	45,59
726,394	45,98
726,832	45,81
727,269	45,93
727,706	46,55
728,143	46,35
728,58	46,95
729,017	46,25
729,454	46,51
729,89	46,98
730,327	46,78
730,764	47,36
731,2	47,06
731,636	47,02
732,072	47,54
732,509	47,51
732,945	47,38
733,38	47,69
733,816	47,97
734,252	47,58
734,688	48,03
735,123	47,73
735,559	48,01
735,994	47,97
736,429	48,26
736,864	48,34
737,299	47,86
737,734	48,58
738,169	48,2
738,604	48,24
739,038	47,92
739,473	48,22
739,907	48,35
740,342	48,15
740,776	48,22
741,21	48,51
741,644	48,82
742,078	48,38
742,512	48,39
742,946	48,3
743,379	47,97
743,813	48,2
744,246	48,07
744,68	48,54
745,113	47,91
745,546	48,01
745,979	48,42
746,412	48,02
746,845	48,09
747,278	48,03
747,711	47,95
748,143	47,98
748,576	48,19
749,008	47,97
749,441	47,91
749,873	47,65
750,305	48,17
750,737	47,55
751,169	47,66
751,601	47,78
752,032	47,69
752,464	47,5
752,896	47,46
753,327	47,26
753,758	47,51
754,19	47,68
754,621	47,57
755,052	47,13
755,483	47,53
755,914	47,82
756,344	47,18
756,775	47,36
757,206	47,42
757,636	47,33
758,066	47,24
758,497	47,01
758,927	47,28
759,357	47,33
759,787	46,91
760,217	46,93
760,647	46,93
761,076	46,95
761,506	46,79
761,935	46,56
762,365	46,83
762,794	46,63
763,223	46,83
763,653	46,72
764,082	46,48
764,51	46,87
764,939	46,63
765,368	46,36
765,797	46,6
766,225	46,34
766,654	46,63
767,082	46,3
767,51	46,51
767,938	46,24
768,367	46,12
768,795	45,98
769,222	46,63
769,65	46,41
770,078	46,04
770,505	46,55
770,933	46,23
771,36	46,59
771,788	46,11
772,215	46,07
772,642	46,18
773,069	45,9
773,496	45,95
773,923	45,64
774,349	45,79
774,776	46,04
775,203	45,93
775,629	46,09
776,055	45,61
776,482	45,34
776,908	45,54
777,334	45,72
777,76	45,77
778,186	45,8
778,611	46,07
779,037	45,65
779,463	45,77
779,888	45,69
780,314	45,56
780,739	45,49
781,164	45,79
781,589	45,34
782,014	45,49
782,439	45,51
782,864	45,7
783,289	46
783,713	45,28
784,138	45,56
784,562	45,17
784,987	45,4
785,411	45,14
785,835	45
786,259	45,45
786,683	45,4
787,107	45,16
787,531	45,26
787,954	45,6
788,378	45,27
788,802	45,43
789,225	45,18
789,648	45,42
790,071	45,05
790,495	45,11
790,918	45,2
791,34	45,22
791,763	45,03
792,186	45,33
792,609	45,12
793,031	45,13
793,454	45,05
793,876	45,49
794,298	45
794,721	45,18
795,143	45,31
795,565	45,08
795,986	45,14
796,408	44,91
796,83	44,91
797,252	44,82
797,673	45,23
798,094	45,44
798,516	45,05
798,937	45,18
799,358	44,77
799,779	44,88
800,2	45,17
800,621	45
801,042	44,9
801,462	44,95
801,883	45,19
802,303	44,69
802,724	45,2
803,144	44,86
803,564	45,11
803,984	45,34
804,404	44,78
804,824	44,68
805,244	44,82
805,664	45,04
806,084	45,11
806,503	44,94
806,923	44,62
807,342	44,73
807,761	44,67
808,18	45,05
808,599	44,71
809,018	45,23
809,437	44,82
809,856	44,54
810,275	44,87
810,693	44,8
811,112	44,79
811,53	45,07
811,949	44,91
812,367	45,15
812,785	44,92
813,203	44,86
813,621	44,72
814,039	45,04
814,457	44,86
814,874	44,77
815,292	44,75
815,709	45,05
816,127	44,81
816,544	44,74
816,961	44,52
817,378	44,99
817,795	44,63
818,212	44,85
818,629	45,1
819,046	44,53
819,462	44,61
819,879	44,56
820,295	44,9
820,712	44,67
821,128	44,55
821,544	44,44
821,96	44,79
822,376	44,55
822,792	44,65
823,208	44,88
823,624	44,61
824,039	44,57
824,455	44,78
824,87	44,28
825,286	44,8
825,701	44,88
826,116	44,26
826,531	44,62
826,946	44,55
827,361	44,56
827,776	44,75
828,19	44,46
828,605	44,25
829,02	44,49
829,434	44,76
829,848	44,58
830,263	44,6
830,677	44,39
831,091	44,31
831,505	44,28
831,919	44,74
832,332	44,64
832,746	44,71
833,16	44,5
833,573	44,21
833,987	44,46
834,4	44,28
834,813	44,1
835,226	44,66
835,639	44,57
836,052	44,06
836,465	44,42
836,878	44,04
837,29	44,33
837,703	44,5
838,116	44,33
838,528	44,57
838,94	44,7
839,352	44,35
839,765	44,41
840,177	44,47
840,589	44,47
841	44,11
841,412	44,53
841,824	44,22
842,235	44,31
842,647	44,63
843,058	44,95
843,47	44,23
843,881	44,26
844,292	44,28
844,703	44,46
845,114	44,17
845,525	44,51
845,935	44,29
846,346	44,24
846,757	44,43
847,167	43,81
847,577	44,27
847,988	44,39
848,398	44,24
848,808	44,44
849,218	44,39
849,628	44,4
850,038	44,25
850,448	44,23
850,857	44,43
851,267	44,32
851,676	44,35
852,086	44,42
852,495	44,45
852,904	44,32
853,313	43,69
853,722	44,2
854,131	44,29
854,54	44,03
854,949	44,16
855,357	44,32
855,766	44,26
856,174	44,22
856,583	44,23
856,991	44,19
857,399	44,71
857,807	43,83
858,215	44,22
858,623	44,41
859,031	43,93
859,439	44,51
859,846	44,1
860,254	44,27
860,661	44,27
861,069	44,2
861,476	44,09
861,883	43,62
862,29	43,94
862,697	44,27
863,104	44,37
863,511	44,03
863,918	43,94
864,325	44,29
864,731	44,37
865,138	44,3
865,544	43,94
865,95	44,14
866,357	44,01
866,763	44,17
867,169	43,71
867,575	44,06
867,98	43,86
868,386	44,19
868,792	44,06
869,197	43,81
869,603	43,71
870,008	43,84
870,414	44,29
870,819	43,95
871,224	43,72
871,629	44,24
872,034	43,8
872,439	43,58
872,844	44
873,248	43,99
873,653	44,13
874,057	43,74
874,462	44,07
874,866	44,4
875,27	43,97
875,674	44,14
876,078	43,73
876,482	44,05
876,886	43,53
877,29	43,85
877,694	44,04
878,097	43,62
878,501	43,69
878,904	43,52
879,308	43,72
879,711	43,84
880,114	43,96
880,517	44,04
880,92	44,48
881,323	44
881,726	44,13
882,128	43,79
882,531	43,75
882,934	44,01
883,336	44,53
883,738	43,84
884,141	43,93
884,543	44,3
884,945	43,74
885,347	43,83
885,749	43,75
886,151	44,33
886,552	44,07
886,954	43,74
887,355	44,07
887,757	43,85
888,158	44,02
888,56	43,91
888,961	44,01
889,362	43,69
889,763	43,86
890,164	43,76
890,565	43,58
890,965	43,92
891,366	43,81
891,767	44,14
892,167	43,63
892,567	44,08
892,968	44,01
893,368	43,81
893,768	43,87
894,168	43,43
894,568	43,75
894,968	44,05
895,368	43,73
895,767	43,64
896,167	43,81
896,566	43,49
896,966	43,74
897,365	44,13
897,764	44,17
898,164	43,91
898,563	44,03
898,962	44,11
899,361	43,82
899,759	43,65
900,158	43,46
900,557	44,03
900,955	43,63
901,354	43,91
901,752	43,62
902,15	43,48
902,548	43,83
902,947	43,81
903,345	44,21
903,742	43,83
904,14	43,64
904,538	43,78
904,936	43,69
905,333	43,51
905,731	43,75
906,128	43,57
906,525	43,71
906,923	44,07
907,32	43,61
907,717	43,9
908,114	44,01
908,511	43,76
908,907	44,51
909,304	43,81
909,701	43,77
910,097	44,37
910,494	43,71
910,89	43,8
911,286	43,81
911,682	44,14
912,078	43,84
912,474	44,43
912,87	43,92
913,266	43,68
913,662	43,29
914,058	42,92
914,453	43,85
914,849	43,58
915,244	43,84
915,639	44,16
916,034	43,55
916,43	43,87
916,825	43,6
917,22	43,75
917,614	43,76
918,009	43,84
918,404	43,57
918,798	43,69
919,193	43,65
919,587	43,78
919,982	43,69
920,376	43,7
920,77	43,76
921,164	43,26
921,558	43,58
921,952	43,85
922,346	43,46
922,74	43,76
923,133	43,43
923,527	43,92
923,92	43,52
924,314	43,6
924,707	43,49
925,1	43,57
925,493	44,25
925,886	43,3
926,279	43,5
926,672	43,92
927,065	43,41
927,457	43,68
927,85	43,26
928,243	43,38
928,635	43,54
929,027	43,78
929,42	43,47
929,812	43,25
930,204	43,42
930,596	43,78
930,988	43,48
931,379	43,56
931,771	43,61
932,163	43,57
932,554	43,03
932,946	43,05
933,337	43,36
933,729	43,63
934,12	42,73
934,511	43,58
934,902	43,49
935,293	43,38
935,684	43,99
936,075	43,85
936,465	43,51
936,856	42,95
937,246	44,06
937,637	43,49
938,027	43,17
938,417	43,11
938,808	43,26
939,198	42,59
939,588	44,44
939,978	43,16
940,368	43,1
940,757	43,02
941,147	43,61
941,537	43,12
941,926	43,52
942,315	44,06
942,705	43,14
943,094	43,24
943,483	43,1
943,872	42,49
944,261	43,24
944,65	42,83
945,039	43,17
945,428	43,02
945,816	43,52
946,205	43,25
946,593	43,78
946,982	43,86
947,37	43,16
947,758	43,41
948,146	42,61
948,534	43,1
948,922	43,37
949,31	42,51
949,698	43,87
950,086	43,05
950,473	42,67
950,861	43,14
951,248	42,63
951,636	43,28
952,023	43,09
952,41	42,97
952,797	43,23
953,184	43,61
953,571	43,25
953,958	42,51
954,345	42,86
954,731	43,05
955,118	42,72
955,505	42,15
955,891	42,56
956,277	43,19
956,664	42,39
957,05	42,91
957,436	42,69
957,822	42,15
958,208	42,65
958,594	42,54
958,979	42,78
959,365	41,96
959,751	42,67
960,136	42,34
960,522	42,39
960,907	42,22
961,292	42,28
961,677	42,8
962,062	42,47
962,447	43,19
962,832	42,16
963,217	43,2
963,602	42,72
963,986	42,86
964,371	42,71
964,756	42,29
965,14	42,58
965,524	42,87
965,908	42,96
966,293	42,3
966,677	42,19
967,061	42,76
967,445	42,9
967,828	42,65
968,212	42,15
968,596	42,35
968,979	42,99
969,363	42,55
969,746	42,75
970,129	42,54
970,513	42,48
970,896	42,61
971,279	42,54
971,662	42,62
972,045	42,54
972,428	43,43
972,81	42,49
973,193	43,27
973,575	42,8
973,958	41,95
974,34	42,27
974,723	42,78
975,105	42,49
975,487	42,51
975,869	42,4
976,251	42,51
976,633	42,59
977,015	41,85
977,396	42,8
977,778	42,7
978,16	42,31
978,541	42,58
978,922	42,78
979,304	42,91
979,685	43,47
980,066	42,45
980,447	42,99
980,828	42,75
981,209	42,68
981,59	42,47
981,97	42,69
982,351	42,86
982,732	43,19
983,112	42,75
983,493	42,77
983,873	42,84
984,253	42,31
984,633	42,8
985,013	42,6
985,393	43,08
985,773	42,96
986,153	42,44
986,533	42,3
986,912	42,77
987,292	42,93
987,671	43,22
988,051	43,08
988,43	42,41
988,809	42,49
989,188	42,96
989,567	42,78
989,946	43,08
990,325	42,77
990,704	42
991,083	42,8
991,461	42,99
991,84	43
992,218	42,72
992,597	42,89
992,975	43,04
993,353	42,55
993,732	42,22
994,11	43,07
994,488	42,74
994,866	42,32
995,243	42,54
995,621	43,03
995,999	43,16
996,376	42,66
996,754	42,79
997,131	42,08
997,509	42,5
997,886	42,46
998,263	43,02
998,64	42,49
999,017	42,92
999,394	42,93
999,771	42,98
1000,148	43,13
1000,524	42,76
1000,901	42,43
1001,277	43,43
1001,654	42,67
1002,03	42,89
1002,406	42,61
1002,783	43,01
1003,159	42,65
1003,535	42,92
1003,911	42,62
1004,286	43,21
1004,662	42,44
1005,038	43,3
1005,414	43,37
1005,789	42,53
1006,164	42,85
1006,54	43,16
1006,915	43,24
1007,29	42,85
1007,665	43,02
1008,04	42,61
1008,415	43,41
1008,79	43,37
1009,165	42,34
1009,54	42,74
1009,914	42,91
1010,289	43,05
1010,663	43,19
1011,038	42,88
1011,412	42,76
1011,786	42,88
1012,16	43,04
1012,535	42,88
1012,909	43,86
1013,282	43,43
1013,656	42,49
1014,03	42,77
1014,404	43,18
1014,777	42,96
1015,151	42,84
1015,524	43,22
1015,897	42,63
1016,271	43,34
1016,644	42,99
1017,017	42,87
1017,39	43
1017,763	42,84
1018,136	43,03
1018,508	42,56
1018,881	43,24
1019,254	42,59
1019,626	42,42
1019,999	43,09
1020,371	43,06
1020,743	43,16
1021,116	42,86
1021,488	43,38
1021,86	43,84
1022,232	44
1022,604	42,3
1022,975	44
1023,347	42,78
1023,719	43,4
1024,09	42,95
1024,462	42,13
1024,833	43,16
1025,204	42,72
1025,576	42,62
1025,947	43
1026,318	42,6
1026,689	44,07
1027,06	43,4
1027,431	43,53
1027,801	43,64
1028,172	42,39
1028,543	43,39
1028,913	44,1
1029,284	42,87
1029,654	42,72
1030,024	42,93
1030,394	43,63
1030,764	42,9
1031,135	42,83
1031,504	43,29
1031,874	42,54
1032,244	42,35
1032,614	43,47
1032,983	43,26
1033,353	42,57
1033,722	43,21
1034,092	43,78
1034,461	42,85
1034,83	43,71
1035,2	42,67
1035,569	42,75
1035,938	42,67
1036,307	43,45
1036,675	42,83
1037,044	43,96
1037,413	43,72
1037,781	42,7
1038,15	44,3
1038,518	44,02
1038,887	43,49
1039,255	43,53
1039,623	42,67
1039,991	42,99
1040,359	43,29
1040,727	43,53
1041,095	42,94
1041,463	42,62
1041,831	43,6
1042,198	42,04
1042,566	44,23
1042,933	43,07
1043,301	43,79
1043,668	43,44
1044,035	43,03
1044,402	43,58
1044,77	43,4
1045,137	43,6
1045,503	43,31
1045,87	43,2
1046,237	42,55
1046,604	43,88
1046,97	42,82
1047,337	44,04
1047,703	43,25
1048,07	42,6
1048,436	44,15
1048,802	43,73
1049,168	43,98
1049,534	42,8
1049,9	44,5
1050,266	44,3
1050,632	42,99
1050,998	44,58
1051,364	43,76
1051,729	43,3
1052,095	42,58
1052,46	43,48
1052,825	43,97
1053,191	43,77
1053,556	42,79
1053,921	43,07
1054,286	43,31
1054,651	43,97
1055,016	45,49
1055,381	43,38
1055,745	42,77
1056,11	42,89
1056,475	44,72
1056,839	43,13
1057,203	43,4
1057,568	43,82
1057,932	43,62
1058,296	43,13
1058,66	42,65
1059,024	43,89
1059,388	45,38
1059,752	43,38
1060,116	43,6
1060,48	46,11
1060,843	42,5
1061,207	44,37
1061,57	43,09
1061,934	44,51
1062,297	43,46
1062,66	43,16
1063,023	44,22
1063,386	44,26
1063,749	43,08
1064,112	43,3
1064,475	43,93
1064,838	43,71
1065,201	43,9
1065,563	44,05
1065,926	43,34
1066,288	43,53
1066,651	43,97
1067,013	43,29
1067,375	44,83
1067,737	45,71
1068,099	43,9
1068,461	45,62
1068,823	42,96
1069,185	43,76
1069,547	44,62
1069,909	41,99
1070,27	43,04
1070,632	43,21
1070,993	44,51
1071,355	43,34
1071,716	43,16
1072,077	43,91
1072,438	43,02
1072,799	44,57
1073,16	44,32
1073,521	43,13
1073,882	44,22
1074,243	44,77
1074,603	43,73
1074,964	41,78
1075,325	42,09
1075,685	41,16
1076,045	42,37
1076,406	43,05
1076,766	42,93
1077,126	43,59
1077,486	45,22
1077,846	44,74
1078,206	44,85
1078,566	43,83
1078,925	43,39
1079,285	43,66
1079,645	43,37
1080,004	43,29
1080,364	42,69
1080,723	45,06
1081,082	45,13
1081,442	43,08
1081,801	42,8
1082,16	43,31
1082,519	42,92
1082,878	44,21
1083,237	41,74
1083,595	42,11
1083,954	43,09
1084,313	42,56
1084,671	43,37
1085,03	43,5
1085,388	42,58
1085,746	43,66
1086,104	42,66
1086,463	41,77
1086,821	44,61
1087,179	43,64
1087,537	43,39
1087,894	44,11
1088,252	44,22
1088,61	42,51
1088,967	45,01
1089,325	43,43
1089,682	44,26
1090,04	45,2
1090,397	43,41
1090,754	42,8
1091,111	41,47
1091,469	46,49
1091,826	42,89
1092,182	45,7
1092,539	42,13
1092,896	43,42
1093,253	43,23
1093,609	41,64
1093,966	43,62
1094,322	42,67
1094,679	43,73
1095,035	44,26
1095,391	43
1095,748	41,81
1096,104	41,29
1096,46	44,36
1096,816	41,2
1097,171	43,47
1097,527	44,45
1097,883	43,53
1098,239	42,99
1098,594	44,96
1098,95	44,02
1099,305	42,76
1099,66	42,44
1100,016	41,73
1100,371	45,6
1100,726	44,13
1101,081	42,22
1101,436	42,89
1101,791	44,69
1102,146	44,01
1102,5	44,65
1102,855	43,74
1103,21	42,33
1103,564	42,75
1103,918	44,85
1104,273	44,8
1104,627	43,68
1104,981	40,88
1105,335	43,68
1105,69	44,64
1106,043	42,58
1106,397	43,08
1106,751	43,79
1107,105	43,48
1107,459	44,28
1107,812	41,92
1108,166	44,22
1108,519	43,19
1108,873	43,71
1109,226	47,21
1109,579	41,85
1109,932	42,83
1110,285	46,92
1110,638	47,55
1110,991	43,14
1111,344	41,87
1111,697	44,8
1112,05	43,54
1112,402	44,44
1112,755	46,14
1113,107	46,32
1113,46	44,56
1113,812	43,28
1114,164	46,73
1114,517	45,88
1114,869	59,26
1115,221	68,42
1115,573	64,39
1115,924	65,09
