Data from E2___Relative__8__00081.txt Node

Date: Wed Jan 31 18:25:01 CET 2024
User: diatiterra
Spectrometer: HDX00911
Trigger mode: 0
Integration Time (sec): 6,000000E-3
Scans to average: 2
Nonlinearity correction enabled: false
Boxcar width: 0
Storing dark spectrum: false
XAxis mode: Wavelengths
Number of Pixels in Spectrum: 2068
>>>>>Begin Spectral Data<<<<<
194,468	218,87
195,025	141,82
195,581	204,88
196,138	194,87
196,694	120,99
197,251	110,61
197,807	89,76
198,363	89,2
198,919	84,83
199,474	88,24
200,03	105,74
200,586	98,21
201,141	78,06
201,696	79,87
202,251	87,12
202,806	80,42
203,361	96,67
203,916	90,62
204,471	90,15
205,025	100,4
205,58	81,43
206,134	103,6
206,688	81,92
207,242	96,46
207,796	93,98
208,35	89,49
208,904	90,69
209,457	80,56
210,011	89,36
210,564	88,38
211,117	86,47
211,67	91,79
212,223	86,64
212,776	96,37
213,329	82,33
213,881	105,39
214,434	86,18
214,986	97,93
215,538	97,79
216,09	84,51
216,642	97,11
217,194	99,24
217,746	89,85
218,297	91,6
218,849	93,01
219,4	96,64
219,951	87,5
220,502	93,58
221,053	102,29
221,604	89,6
222,155	98,02
222,705	80,88
223,256	91,04
223,806	99,21
224,356	96,15
224,906	101,21
225,456	94,96
226,006	91,67
226,556	73,05
227,106	94,35
227,655	83,33
228,204	97,08
228,754	84,86
229,303	81,79
229,852	84,89
230,401	85,82
230,949	82,01
231,498	89,79
232,047	80,52
232,595	87,24
233,143	95,28
233,691	87,21
234,239	84,29
234,787	98
235,335	94,78
235,883	81,82
236,43	90,91
236,978	92,31
237,525	88,69
238,072	85,11
238,619	84,09
239,166	87,23
239,713	83,58
240,26	82,14
240,806	90,62
241,353	91,27
241,899	84,97
242,445	86,5
242,991	91,98
243,537	88,26
244,083	98,09
244,629	89,62
245,174	92,48
245,72	85,19
246,265	82,54
246,81	92
247,355	101,19
247,9	84,7
248,445	94,44
248,99	92,8
249,534	103,91
250,079	90,98
250,623	86,3
251,168	92,56
251,712	94,14
252,256	93,85
252,8	97,31
253,343	91,79
253,887	88,71
254,43	88,93
254,974	100,38
255,517	79,45
256,06	99,62
256,603	83,33
257,146	92,64
257,689	97,24
258,232	97,46
258,774	86,17
259,317	90,25
259,859	106,88
260,401	100,78
260,943	83,33
261,485	81,21
262,027	91,6
262,569	96,64
263,11	88,46
263,652	98,03
264,193	97,52
264,734	91,24
265,275	100,41
265,816	100
266,357	96,51
266,898	92,69
267,438	101,18
267,979	86,33
268,519	85,82
269,059	106,07
269,6	92,86
270,14	100,4
270,68	89,13
271,219	107,2
271,759	81,95
272,298	89,85
272,838	92,31
273,377	98,81
273,916	83,09
274,455	100
274,994	96
275,533	84,42
276,072	95,53
276,61	86,59
277,149	97,08
277,687	95,11
278,225	87
278,763	103,07
279,301	90,42
279,839	91,53
280,377	92,62
280,914	87,41
281,452	105,98
281,989	92,15
282,526	89,76
283,064	93,28
283,601	86,82
284,137	97,11
284,674	98,33
285,211	103,95
285,747	90,15
286,284	108,56
286,82	92,98
287,356	84,87
287,892	92,25
288,428	94,21
288,964	113,03
289,5	101,65
290,035	97,6
290,571	99,16
291,106	106,1
291,641	106,7
292,176	92,97
292,711	97,15
293,246	88,85
293,781	102,48
294,315	83,1
294,85	106,48
295,384	95,49
295,918	99,63
296,453	76,87
296,987	95,04
297,52	97,11
298,054	90,46
298,588	92,08
299,121	80,6
299,655	88,69
300,188	91,67
300,721	102,85
301,254	83,87
301,787	93,36
302,32	98,78
302,853	96
303,385	90
303,918	94,96
304,45	95,38
304,982	81,91
305,514	90,31
306,046	88,84
306,578	87,98
307,11	93,41
307,641	101,72
308,173	90,08
308,704	88,02
309,236	80,45
309,767	96,45
310,298	85,08
310,829	97,83
311,359	91,94
311,89	93,7
312,421	97,3
312,951	91,06
313,481	83,1
314,012	90,67
314,542	95,34
315,072	90,46
315,601	93,6
316,131	100,79
316,661	84,17
317,19	92,22
317,72	93,39
318,249	98,81
318,778	92,58
319,307	91,41
319,836	98,67
320,365	91,3
320,893	93,39
321,422	102,44
321,95	97,74
322,479	91,22
323,007	102,73
323,535	84,64
324,063	97,2
324,591	94,8
325,118	97,45
325,646	107,98
326,173	93,33
326,701	97,97
327,228	100,86
327,755	87,59
328,282	86,26
328,809	99,58
329,336	86,22
329,862	91,91
330,389	88,67
330,915	87,8
331,441	82,44
331,968	95,95
332,494	85,23
333,02	85
333,545	79,1
334,071	104,55
334,597	77,11
335,122	78,15
335,648	96,12
336,173	81,82
336,698	76,27
337,223	84,93
337,748	80,9
338,272	82,53
338,797	82,25
339,322	77,37
339,846	80,88
340,37	90,73
340,894	79,51
341,419	90,6
341,942	83,57
342,466	76,92
342,99	76,17
343,514	77,82
344,037	76,27
344,56	84,44
345,084	80,14
345,607	84,03
346,13	73,24
346,653	73
347,175	75,64
347,698	73,9
348,221	68,93
348,743	74,22
349,265	79,5
349,787	68,4
350,309	64,87
350,831	64,81
351,353	70,73
351,875	66,37
352,397	74,13
352,918	72,37
353,439	74,83
353,961	63,37
354,482	70,18
355,003	65,7
355,524	65
356,044	63,07
356,565	72,89
357,086	74,86
357,606	57,42
358,126	63,83
358,646	58,67
359,167	65,95
359,687	66,1
360,206	62,57
360,726	57,35
361,246	65,96
361,765	62,99
362,285	56,75
362,804	61,32
363,323	52,93
363,842	60,44
364,361	55,72
364,88	55,42
365,398	53,71
365,917	52,83
366,435	66,15
366,954	52,9
367,472	50,47
367,99	62,09
368,508	52,63
369,026	63,64
369,544	52,41
370,061	55,46
370,579	50,41
371,096	56,88
371,613	50,43
372,131	50
372,648	49,41
373,165	48,44
373,681	46,62
374,198	47,27
374,715	46,8
375,231	46,78
375,747	48,28
376,264	43,88
376,78	42,09
377,296	46,1
377,812	45,02
378,327	43,21
378,843	43,86
379,359	42,38
379,874	46,54
380,389	45,11
380,905	38,96
381,42	38,15
381,935	42,68
382,449	39,68
382,964	37,43
383,479	36,78
383,993	36,43
384,508	35,7
385,022	35,23
385,536	37,24
386,05	36,09
386,564	35,7
387,078	34,21
387,592	36,13
388,105	32,39
388,619	31,03
389,132	31,12
389,645	32,3
390,158	29,72
390,671	29,12
391,184	27,53
391,697	28,16
392,21	27,41
392,722	27,38
393,235	30,39
393,747	28,31
394,259	26,97
394,771	25,96
395,283	27,11
395,795	27,99
396,307	27,29
396,818	28,25
397,33	23,38
397,841	25,04
398,353	26,49
398,864	24,63
399,375	23,21
399,886	24,73
400,397	21,37
400,907	21,84
401,418	21,15
401,928	20,51
402,439	21,99
402,949	20,12
403,459	19,2
403,969	21,05
404,479	18,87
404,989	18,64
405,498	17,75
406,008	18,3
406,517	17,07
407,027	14,82
407,536	15,5
408,045	14,1
408,554	14,95
409,063	13,02
409,572	12,52
410,08	12,36
410,589	12,78
411,097	11,96
411,606	11,98
412,114	11,48
412,622	11,32
413,13	10,62
413,638	9,65
414,145	9,58
414,653	10,29
415,16	9,38
415,668	9,21
416,175	8,3
416,682	8,77
417,189	7,57
417,696	8,26
418,203	8,28
418,71	8,47
419,216	7,6
419,723	7,78
420,229	7,04
420,735	6,86
421,242	7,27
421,748	7,15
422,254	6,99
422,759	6,6
423,265	6,92
423,771	6,93
424,276	7,07
424,781	6,05
425,287	6,69
425,792	6,4
426,297	6,77
426,802	6,02
427,306	5,74
427,811	5,96
428,316	6,47
428,82	6,18
429,324	5,87
429,829	6,23
430,333	5,54
430,837	5,68
431,34	5,66
431,844	5,54
432,348	5,37
432,851	5,31
433,355	5,55
433,858	5,4
434,361	5,34
434,864	5,24
435,367	4,95
435,87	5,73
436,373	5,42
436,876	5,33
437,378	5,11
437,88	5,18
438,383	5,15
438,885	4,97
439,387	5,37
439,889	5,07
440,391	4,8
440,892	5,01
441,394	5,07
441,896	5,1
442,397	4,98
442,898	4,88
443,399	5,32
443,9	4,78
444,401	5,01
444,902	4,96
445,403	5,22
445,903	5,07
446,404	5,19
446,904	5,17
447,405	4,89
447,905	5
448,405	5,28
448,905	4,8
449,404	5,32
449,904	4,79
450,404	5,1
450,903	5,31
451,403	5,15
451,902	5,29
452,401	5,14
452,9	5,27
453,399	5,2
453,898	4,61
454,396	5,04
454,895	4,82
455,393	5,14
455,892	5,01
456,39	5,13
456,888	5,28
457,386	4,98
457,884	4,93
458,382	5,21
458,879	5,3
459,377	5,43
459,874	5,16
460,372	5,08
460,869	5,13
461,366	5,03
461,863	5,13
462,36	5,18
462,857	5,13
463,353	4,84
463,85	4,94
464,346	4,73
464,843	5,16
465,339	5,07
465,835	5,38
466,331	5,18
466,827	4,73
467,323	5,1
467,818	4,83
468,314	5,26
468,809	5,17
469,305	4,7
469,8	4,94
470,295	4,9
470,79	4,93
471,285	4,92
471,78	4,69
472,274	4,78
472,769	4,81
473,263	4,87
473,758	4,66
474,252	4,87
474,746	5
475,24	4,87
475,734	4,67
476,228	5,03
476,721	4,8
477,215	4,86
477,708	5
478,202	4,97
478,695	4,9
479,188	4,92
479,681	4,88
480,174	4,85
480,667	5,04
481,159	4,97
481,652	4,96
482,144	4,87
482,637	5,09
483,129	4,66
483,621	4,89
484,113	4,94
484,605	5,18
485,097	5,11
485,588	5
486,08	5,18
486,571	5,13
487,063	5,28
487,554	5,24
488,045	5,27
488,536	5,2
489,027	5,17
489,518	5,4
490,008	5,07
490,499	5,27
490,989	5,29
491,48	5,35
491,97	5,41
492,46	5,46
492,95	5,48
493,44	5,89
493,93	5,59
494,419	5,64
494,909	6,04
495,398	5,86
495,888	5,91
496,377	5,99
496,866	6,33
497,355	6,32
497,844	6,35
498,333	6,43
498,821	6,53
499,31	6,71
499,798	6,62
500,287	7,04
500,775	7,12
501,263	7,04
501,751	7,33
502,239	7,22
502,727	7,42
503,215	7,68
503,702	7,88
504,19	7,68
504,677	8,25
505,164	8,63
505,651	8,39
506,139	8,84
506,625	8,79
507,112	9,2
507,599	9,32
508,086	9,7
508,572	9,65
509,058	9,8
509,545	10,07
510,031	10,43
510,517	10,66
511,003	10,51
511,489	11,43
511,974	11,32
512,46	11,43
512,946	11,8
513,431	12,31
513,916	12,17
514,401	12,35
514,887	12,61
515,371	13,15
515,856	13,29
516,341	13,29
516,826	13,92
517,31	14,21
517,795	14,87
518,279	14,35
518,763	15,2
519,247	15,76
519,731	15,91
520,215	15,87
520,699	15,9
521,182	16,34
521,666	16,73
522,149	17,04
522,633	17,65
523,116	17,68
523,599	17,94
524,082	17,93
524,565	18,24
525,048	18,49
525,53	18,6
526,013	19,21
526,495	19,32
526,978	19,36
527,46	19,88
527,942	19,69
528,424	20,13
528,906	20,2
529,388	20,32
529,87	20,87
530,351	20,62
530,833	21,16
531,314	21,23
531,795	20,57
532,277	21,65
532,758	21,35
533,238	21,51
533,719	21,93
534,2	21,47
534,681	22,07
535,161	21,99
535,642	22,6
536,122	21,89
536,602	22,45
537,082	22,22
537,562	22,42
538,042	22,34
538,522	22,58
539,001	22,61
539,481	22,37
539,96	22,59
540,44	22,8
540,919	22,53
541,398	22,57
541,877	22,58
542,356	22,99
542,835	22,34
543,313	22,84
543,792	22,84
544,27	23,14
544,749	23,03
545,227	22,99
545,705	23,23
546,183	23,34
546,661	23,34
547,139	23,06
547,616	23,2
548,094	23,23
548,571	23,11
549,049	23,38
549,526	23,37
550,003	23,77
550,48	23,14
550,957	23,32
551,434	23,28
551,911	23,41
552,387	23,44
552,864	23,52
553,34	23,92
553,817	23,41
554,293	23,15
554,769	23,19
555,245	23,07
555,721	23,2
556,197	23,35
556,672	23,41
557,148	23,56
557,623	23,11
558,099	22,99
558,574	23,23
559,049	22,89
559,524	23,43
559,999	22,85
560,474	22,83
560,948	22,68
561,423	23,01
561,897	22,87
562,372	22,8
562,846	22,84
563,32	22,4
563,794	22,58
564,268	22,47
564,742	22,48
565,216	22,36
565,69	21,81
566,163	21,88
566,636	21,87
567,11	21,94
567,583	21,67
568,056	21,56
568,529	21,87
569,002	21,34
569,475	21,35
569,947	20,99
570,42	21,25
570,892	20,89
571,365	20,21
571,837	20,62
572,309	20,51
572,781	20,02
573,253	20,22
573,725	19,73
574,197	19,58
574,668	19,79
575,14	19,35
575,611	19,61
576,082	18,91
576,554	18,85
577,025	18,76
577,496	18,69
577,967	18,43
578,437	18,35
578,908	18,46
579,379	18,26
579,849	18,02
580,319	18,26
580,79	17,57
581,26	17,72
581,73	17,43
582,2	17,57
582,669	17,64
583,139	17,23
583,609	17,18
584,078	17,41
584,548	17,01
585,017	16,88
585,486	16,72
585,955	17,15
586,424	16,87
586,893	16,52
587,362	16,52
587,83	16,62
588,299	16,35
588,767	16,52
589,236	16,48
589,704	16,28
590,172	15,97
590,64	15,98
591,108	15,98
591,576	16,15
592,043	15,83
592,511	15,85
592,978	16,07
593,446	15,65
593,913	15,54
594,38	15,56
594,847	15,64
595,314	15,68
595,781	15,36
596,248	15,43
596,715	15,48
597,181	15,19
597,647	15,21
598,114	15,32
598,58	15,06
599,046	15,14
599,512	15,34
599,978	15,04
600,444	15,1
600,91	14,98
601,375	15
601,841	15,02
602,306	15,14
602,771	14,83
603,236	14,99
603,702	15,25
604,167	14,75
604,631	14,69
605,096	14,73
605,561	14,61
606,025	14,53
606,49	14,48
606,954	14,49
607,418	14,31
607,882	14,18
608,347	14,14
608,81	14,04
609,274	13,94
609,738	13,85
610,202	13,85
610,665	13,6
611,128	13,66
611,592	13,29
612,055	13,43
612,518	13,28
612,981	13,42
613,444	13,05
613,907	13,1
614,369	13,03
614,832	13,05
615,294	12,76
615,757	12,8
616,219	12,79
616,681	12,48
617,143	12,47
617,605	12,62
618,067	12,34
618,529	12,43
618,99	12,32
619,452	12,09
619,913	12,05
620,375	12,17
620,836	12,2
621,297	12,03
621,758	11,83
622,219	11,83
622,68	11,62
623,14	11,66
623,601	11,58
624,061	11,73
624,522	11,58
624,982	11,65
625,442	11,71
625,902	11,73
626,362	11,51
626,822	11,64
627,282	11,43
627,742	11,48
628,201	11,53
628,661	11,38
629,12	11,47
629,579	11,5
630,038	11,46
630,497	11,66
630,956	11,45
631,415	11,39
631,874	11,37
632,332	11,24
632,791	11,18
633,249	11,16
633,708	11,34
634,166	11,1
634,624	11,01
635,082	10,97
635,54	10,91
635,998	10,63
636,455	10,85
636,913	10,76
637,37	10,43
637,828	10,48
638,285	10,34
638,742	10,3
639,199	10,15
639,656	10,05
640,113	9,93
640,57	9,79
641,027	9,62
641,483	9,62
641,94	9,31
642,396	9,31
642,852	9,29
643,309	9,1
643,765	8,84
644,221	8,76
644,676	8,64
645,132	8,56
645,588	8,53
646,043	8,34
646,499	8,29
646,954	8,14
647,409	8,01
647,864	7,82
648,319	7,71
648,774	7,66
649,229	7,64
649,684	7,48
650,139	7,44
650,593	7,39
651,047	7,45
651,502	7,21
651,956	7,13
652,41	7,1
652,864	7,08
653,318	7,13
653,772	7,01
654,225	6,86
654,679	6,98
655,133	6,78
655,586	6,78
656,039	6,7
656,492	6,66
656,946	6,63
657,399	6,55
657,851	6,48
658,304	6,36
658,757	6,33
659,209	6,23
659,662	6,14
660,114	5,96
660,567	6,01
661,019	5,77
661,471	5,77
661,923	5,66
662,375	5,52
662,826	5,43
663,278	5,43
663,73	5,33
664,181	5,27
664,632	5,22
665,084	5,21
665,535	5,03
665,986	5,16
666,437	4,89
666,888	4,93
667,338	4,92
667,789	4,91
668,24	4,96
668,69	4,94
669,14	4,91
669,591	4,89
670,041	4,84
670,491	4,85
670,941	4,85
671,391	4,96
671,84	4,96
672,29	5,01
672,74	4,93
673,189	5,04
673,638	5,09
674,088	5,22
674,537	5,24
674,986	5,2
675,435	5,32
675,883	5,42
676,332	5,5
676,781	5,62
677,229	5,7
677,678	5,69
678,126	5,9
678,574	5,99
679,022	6,08
679,47	6,15
679,918	6,33
680,366	6,42
680,814	6,51
681,261	6,61
681,709	6,78
682,156	6,85
682,604	6,96
683,051	7,23
683,498	7,35
683,945	7,44
684,392	7,71
684,839	7,83
685,286	7,97
685,732	8,15
686,179	8,33
686,625	8,51
687,071	8,78
687,518	8,89
687,964	9,23
688,41	9,46
688,856	9,75
689,301	10,18
689,747	10,61
690,193	10,86
690,638	11,06
691,084	11,57
691,529	12,11
691,974	12,43
692,419	12,97
692,864	13,53
693,309	13,82
693,754	14,26
694,199	14,86
694,643	15,25
695,088	15,76
695,532	16,29
695,977	16,72
696,421	17,37
696,865	17,72
697,309	18,03
697,753	18,8
698,197	19,19
698,64	19,79
699,084	20,34
699,527	20,53
699,971	21,1
700,414	21,29
700,857	21,96
701,3	22,29
701,743	22,68
702,186	23,24
702,629	23,51
703,072	23,99
703,515	24,24
703,957	24,63
704,399	25,1
704,842	25,28
705,284	25,75
705,726	26,18
706,168	26,23
706,61	26,52
707,052	26,83
707,494	27,19
707,935	27,55
708,377	27,89
708,818	28,3
709,26	28,24
709,701	28,62
710,142	29,02
710,583	28,96
711,024	29,52
711,465	29,58
711,905	29,79
712,346	29,89
712,787	29,94
713,227	30,63
713,667	30,62
714,108	30,92
714,548	31,13
714,988	31,44
715,428	31,77
715,868	32
716,307	31,98
716,747	32,21
717,186	32,51
717,626	32,43
718,065	32,88
718,504	33,04
718,944	33,2
719,383	33,4
719,822	33,41
720,261	33,5
720,699	33,66
721,138	33,57
721,576	34,28
722,015	34,07
722,453	34,19
722,892	34,33
723,33	34,59
723,768	34,93
724,206	34,83
724,644	34,85
725,081	34,92
725,519	35,07
725,957	35,11
726,394	35,45
726,832	35,12
727,269	35,54
727,706	35,52
728,143	35,28
728,58	35,73
729,017	35,53
729,454	35,68
729,89	36,02
730,327	35,71
730,764	36,17
731,2	35,86
731,636	35,85
732,072	36,43
732,509	36,24
732,945	36,22
733,38	36,4
733,816	36,2
734,252	36,43
734,688	36,39
735,123	36,56
735,559	36,61
735,994	36,23
736,429	36,76
736,864	36,64
737,299	36,41
737,734	36,68
738,169	36,64
738,604	36,84
739,038	36,54
739,473	36,91
739,907	36,59
740,342	36,67
740,776	36,94
741,21	36,76
741,644	36,9
742,078	36,74
742,512	36,54
742,946	36,85
743,379	36,47
743,813	36,5
744,246	36,72
744,68	36,8
745,113	36,13
745,546	36,32
745,979	36,48
746,412	36,5
746,845	36,54
747,278	36,62
747,711	36,55
748,143	36,33
748,576	36,35
749,008	36,58
749,441	36,45
749,873	36,12
750,305	36,46
750,737	36,2
751,169	36,17
751,601	36,19
752,032	35,97
752,464	36,21
752,896	35,65
753,327	36,18
753,758	36,11
754,19	35,95
754,621	35,66
755,052	35,94
755,483	35,95
755,914	35,96
756,344	35,79
756,775	35,75
757,206	35,66
757,636	35,85
758,066	35,94
758,497	35,68
758,927	35,96
759,357	35,73
759,787	35,41
760,217	35,58
760,647	35,42
761,076	35,51
761,506	35,3
761,935	35,34
762,365	35,5
762,794	35,43
763,223	35,29
763,653	35,43
764,082	35,31
764,51	35,47
764,939	35,52
765,368	35,13
765,797	35,25
766,225	35,27
766,654	35,1
767,082	35,11
767,51	35,05
767,938	34,99
768,367	35,08
768,795	34,79
769,222	35,31
769,65	35,33
770,078	35,06
770,505	35,2
770,933	34,91
771,36	35,19
771,788	34,8
772,215	34,8
772,642	35,13
773,069	34,89
773,496	34,75
773,923	34,72
774,349	34,86
774,776	34,65
775,203	34,66
775,629	34,73
776,055	34,63
776,482	34,74
776,908	34,61
777,334	34,46
777,76	34,84
778,186	34,62
778,611	34,8
779,037	34,68
779,463	34,61
779,888	34,51
780,314	34,77
780,739	34,85
781,164	34,83
781,589	34,5
782,014	34,61
782,439	34,51
782,864	34,52
783,289	34,75
783,713	34,42
784,138	34,34
784,562	34,31
784,987	34,37
785,411	34,52
785,835	34,22
786,259	34,47
786,683	34,55
787,107	34,49
787,531	34,28
787,954	34,15
788,378	34,41
788,802	34,36
789,225	34,29
789,648	34,62
790,071	34,03
790,495	34,61
790,918	34,53
791,34	34,34
791,763	34,22
792,186	34,18
792,609	34,35
793,031	34,33
793,454	34,36
793,876	34,43
794,298	34,38
794,721	34,28
795,143	34,45
795,565	34,04
795,986	34,12
796,408	34,38
796,83	34,13
797,252	34,32
797,673	34,63
798,094	34,58
798,516	34,32
798,937	34,18
799,358	34,17
799,779	34,33
800,2	34,44
800,621	34,03
801,042	33,95
801,462	34,07
801,883	34,03
802,303	34,04
802,724	34,23
803,144	34,11
803,564	34,22
803,984	34,1
804,404	34,18
804,824	34,14
805,244	34,26
805,664	34,39
806,084	34,17
806,503	33,97
806,923	33,97
807,342	34,08
807,761	33,79
808,18	34,07
808,599	33,91
809,018	34,01
809,437	34,12
809,856	33,79
810,275	34,11
810,693	34,03
811,112	34,1
811,53	33,97
811,949	34,02
812,367	34,27
812,785	34,17
813,203	34,4
813,621	33,74
814,039	34,26
814,457	34,08
814,874	33,97
815,292	33,78
815,709	34,11
816,127	34,19
816,544	33,99
816,961	33,92
817,378	34,35
817,795	34,03
818,212	34,12
818,629	34,28
819,046	34,06
819,462	34,11
819,879	33,81
820,295	33,93
820,712	33,99
821,128	34,03
821,544	34,09
821,96	34,23
822,376	33,89
822,792	33,9
823,208	34,11
823,624	33,94
824,039	34,01
824,455	34,11
824,87	33,73
825,286	33,77
825,701	33,78
826,116	33,91
826,531	34,05
826,946	33,87
827,361	33,91
827,776	33,83
828,19	33,57
828,605	33,74
829,02	33,93
829,434	33,68
829,848	33,71
830,263	34,04
830,677	33,56
831,091	33,5
831,505	33,77
831,919	34,17
832,332	34,02
832,746	34,09
833,16	33,66
833,573	33,58
833,987	34,07
834,4	33,8
834,813	33,64
835,226	33,59
835,639	33,95
836,052	33,74
836,465	33,69
836,878	33,76
837,29	33,9
837,703	33,77
838,116	33,97
838,528	33,87
838,94	33,83
839,352	33,82
839,765	33,98
840,177	33,8
840,589	33,55
841	33,4
841,412	33,93
841,824	33,76
842,235	33,6
842,647	33,55
843,058	33,79
843,47	33,79
843,881	33,66
844,292	33,23
844,703	33,74
845,114	33,68
845,525	33,53
845,935	33,51
846,346	33,68
846,757	33,64
847,167	33,73
847,577	33,57
847,988	33,62
848,398	33,81
848,808	33,65
849,218	33,89
849,628	33,6
850,038	33,9
850,448	33,83
850,857	33,75
851,267	33,9
851,676	33,61
852,086	33,76
852,495	33,57
852,904	33,47
853,313	33,51
853,722	33,44
854,131	33,87
854,54	33,56
854,949	33,37
855,357	33,36
855,766	33,55
856,174	33,35
856,583	33,42
856,991	33,68
857,399	33,64
857,807	33,55
858,215	33,63
858,623	34,22
859,031	33,26
859,439	33,97
859,846	33,63
860,254	33,67
860,661	33,88
861,069	33,37
861,476	33,64
861,883	33,45
862,29	33,63
862,697	33,63
863,104	33,65
863,511	33,46
863,918	33,45
864,325	33,74
864,731	33,46
865,138	33,28
865,544	33,24
865,95	33,38
866,357	33,63
866,763	33,58
867,169	33,59
867,575	33,47
867,98	33,36
868,386	33,36
868,792	33,55
869,197	33,32
869,603	33,5
870,008	33,29
870,414	33,8
870,819	33,31
871,224	33,17
871,629	33,44
872,034	33,56
872,439	33,25
872,844	33,62
873,248	33,5
873,653	33,68
874,057	33,44
874,462	33,52
874,866	33,66
875,27	33,37
875,674	33,95
876,078	33,7
876,482	33,35
876,886	33,51
877,29	33,18
877,694	33,34
878,097	33,08
878,501	33,36
878,904	33,19
879,308	33,31
879,711	33,44
880,114	33,24
880,517	33,54
880,92	33,77
881,323	33,87
881,726	33,61
882,128	33,53
882,531	33,42
882,934	33,78
883,336	33,44
883,738	33,43
884,141	33,31
884,543	33,65
884,945	33,65
885,347	33,27
885,749	33,36
886,151	33,54
886,552	33,76
886,954	33,17
887,355	33,67
887,757	33,64
888,158	33,14
888,56	33,43
888,961	33,56
889,362	33,35
889,763	33,69
890,164	33,7
890,565	33,2
890,965	33,46
891,366	33,85
891,767	33,49
892,167	33,53
892,567	33,46
892,968	33,45
893,368	33,4
893,768	33,13
894,168	33,18
894,568	33,3
894,968	33,41
895,368	33,27
895,767	32,93
896,167	33,36
896,566	33,53
896,966	33,44
897,365	33,5
897,764	33,37
898,164	33,45
898,563	33,53
898,962	33,53
899,361	33,59
899,759	33,33
900,158	33,15
900,557	33,21
900,955	33,17
901,354	33,25
901,752	33,24
902,15	33,25
902,548	33,3
902,947	33,41
903,345	33,71
903,742	33,28
904,14	33,46
904,538	33,35
904,936	33,48
905,333	33,23
905,731	33,3
906,128	33,57
906,525	33,2
906,923	33,5
907,32	33,58
907,717	33,65
908,114	33,32
908,511	33,29
908,907	33,76
909,304	33,69
909,701	33,23
910,097	33,68
910,494	33,17
910,89	33,49
911,286	33,37
911,682	33,62
912,078	33,49
912,474	33,62
912,87	33,5
913,266	33,57
913,662	33,45
914,058	33,29
914,453	33,23
914,849	33
915,244	33,35
915,639	33,6
916,034	33,17
916,43	33,51
916,825	33,43
917,22	33,33
917,614	33,45
918,009	33,54
918,404	33,02
918,798	33,07
919,193	33,42
919,587	33,33
919,982	33,13
920,376	32,88
920,77	33,26
921,164	33,38
921,558	33,34
921,952	33,39
922,346	33,46
922,74	33,63
923,133	33,41
923,527	33,07
923,92	33,19
924,314	33,27
924,707	33,12
925,1	33,49
925,493	33,55
925,886	33,25
926,279	33,25
926,672	33,39
927,065	32,89
927,457	33,43
927,85	33,05
928,243	33,26
928,635	33,52
929,027	33,33
929,42	33,68
929,812	33,35
930,204	33,93
930,596	33,89
930,988	33,7
931,379	33,54
931,771	33,33
932,163	33,59
932,554	32,97
932,946	32,91
933,337	32,86
933,729	33,83
934,12	33,3
934,511	33,3
934,902	33,17
935,293	33,14
935,684	33,89
936,075	34,1
936,465	33,68
936,856	33,35
937,246	33,62
937,637	33,7
938,027	33,37
938,417	33,29
938,808	33,51
939,198	33,25
939,588	33,78
939,978	33,99
940,368	33,17
940,757	33,57
941,147	33,89
941,537	34,05
941,926	33,97
942,315	34,31
942,705	33,56
943,094	33,85
943,483	33,42
943,872	33,25
944,261	33,15
944,65	33,4
945,039	34,16
945,428	34,14
945,816	33,85
946,205	33,98
946,593	34,03
946,982	33,59
947,37	33,5
947,758	33,34
948,146	33,51
948,534	33,49
948,922	33,69
949,31	33,14
949,698	33,74
950,086	33,51
950,473	33,49
950,861	33,84
951,248	32,95
951,636	33,7
952,023	33,02
952,41	33,47
952,797	33,35
953,184	33,57
953,571	33,62
953,958	33,41
954,345	32,98
954,731	33,65
955,118	33,42
955,505	32,87
955,891	33,01
956,277	33,47
956,664	32,98
957,05	32,89
957,436	32,59
957,822	32,82
958,208	32,5
958,594	32,9
958,979	33,03
959,365	32,62
959,751	32,81
960,136	33,05
960,522	33,16
960,907	33,26
961,292	32,52
961,677	33,2
962,062	32,84
962,447	33,01
962,832	32,7
963,217	32,97
963,602	33,26
963,986	32,9
964,371	32,81
964,756	32,77
965,14	32,72
965,524	33,24
965,908	33,33
966,293	32,61
966,677	33,1
967,061	33,54
967,445	32,61
967,828	32,83
968,212	32,57
968,596	33,16
968,979	33,5
969,363	32,81
969,746	33,14
970,129	32,74
970,513	32,78
970,896	33,3
971,279	32,69
971,662	33,2
972,045	32,76
972,428	33,64
972,81	33,31
973,193	33,43
973,575	32,9
973,958	32,38
974,34	32,58
974,723	32,86
975,105	32,85
975,487	32,91
975,869	32,98
976,251	33,07
976,633	33,61
977,015	32,8
977,396	33,45
977,778	32,68
978,16	33,09
978,541	32,84
978,922	33,07
979,304	33,4
979,685	33,17
980,066	33,43
980,447	32,92
980,828	33
981,209	33,42
981,59	32,56
981,97	32,87
982,351	33,15
982,732	33,26
983,112	33,11
983,493	33,64
983,873	33,3
984,253	32,82
984,633	33,46
985,013	32,99
985,393	33,62
985,773	32,78
986,153	33,06
986,533	32,94
986,912	33,39
987,292	32,97
987,671	32,66
988,051	33,57
988,43	32,82
988,809	33,04
989,188	33,55
989,567	32,98
989,946	33,14
990,325	33,11
990,704	33,01
991,083	33,63
991,461	33,45
991,84	33,45
992,218	33
992,597	33,2
992,975	33,51
993,353	33,25
993,732	33,79
994,11	33,18
994,488	34,01
994,866	33,05
995,243	33,69
995,621	33,58
995,999	33,71
996,376	33,58
996,754	33,26
997,131	33,22
997,509	33,75
997,886	33,26
998,263	33,49
998,64	33,12
999,017	33,64
999,394	33,29
999,771	33,76
1000,148	33,53
1000,524	33,13
1000,901	32,89
1001,277	33,66
1001,654	33,51
1002,03	33,19
1002,406	33,58
1002,783	33,75
1003,159	33,77
1003,535	33,61
1003,911	33,8
1004,286	34,33
1004,662	33,69
1005,038	34,01
1005,414	34,32
1005,789	33,62
1006,164	33,71
1006,54	34,22
1006,915	33,39
1007,29	33,38
1007,665	33,68
1008,04	33,44
1008,415	33,89
1008,79	34,4
1009,165	33,4
1009,54	33,68
1009,914	34,04
1010,289	33,65
1010,663	34,25
1011,038	33,97
1011,412	33,82
1011,786	33,77
1012,16	34,18
1012,535	33,31
1012,909	34,62
1013,282	33,76
1013,656	33,57
1014,03	33,87
1014,404	34,69
1014,777	33,76
1015,151	34,22
1015,524	34,27
1015,897	34,13
1016,271	33,65
1016,644	33,69
1017,017	34,73
1017,39	34,27
1017,763	34,08
1018,136	33,94
1018,508	33,7
1018,881	33,85
1019,254	33,57
1019,626	33,94
1019,999	34,06
1020,371	33,84
1020,743	34,23
1021,116	34,06
1021,488	33,98
1021,86	34,62
1022,232	35,05
1022,604	34,24
1022,975	34,78
1023,347	34,53
1023,719	35,03
1024,09	34,84
1024,462	34
1024,833	34,44
1025,204	35,17
1025,576	34,18
1025,947	34,26
1026,318	34,63
1026,689	35,01
1027,06	34,52
1027,431	35,16
1027,801	34,59
1028,172	34,32
1028,543	34,78
1028,913	34,69
1029,284	34,71
1029,654	35,06
1030,024	34,87
1030,394	34,83
1030,764	34,84
1031,135	34,8
1031,504	34,51
1031,874	34,74
1032,244	34,6
1032,614	35,11
1032,983	34,53
1033,353	34,41
1033,722	35,02
1034,092	35,26
1034,461	34,07
1034,83	35,15
1035,2	35,24
1035,569	35,58
1035,938	35,35
1036,307	35,66
1036,675	35
1037,044	34,91
1037,413	34,5
1037,781	35,5
1038,15	35,72
1038,518	35,66
1038,887	35,17
1039,255	35,37
1039,623	35,35
1039,991	35,84
1040,359	35,05
1040,727	35,87
1041,095	36,04
1041,463	35,88
1041,831	35,28
1042,198	34,34
1042,566	36,44
1042,933	35,84
1043,301	34,92
1043,668	35,43
1044,035	34,86
1044,402	36,36
1044,77	35,18
1045,137	36,07
1045,503	36,54
1045,87	35,65
1046,237	35,24
1046,604	36,35
1046,97	34,85
1047,337	36,79
1047,703	35,6
1048,07	36,58
1048,436	36,5
1048,802	36,64
1049,168	36,82
1049,534	35,49
1049,9	36,2
1050,266	36,59
1050,632	35,92
1050,998	36,91
1051,364	36,78
1051,729	36,12
1052,095	36,4
1052,46	36,24
1052,825	36,16
1053,191	37,2
1053,556	35,74
1053,921	36,72
1054,286	36,54
1054,651	36,67
1055,016	38,18
1055,381	36,1
1055,745	35,98
1056,11	37,17
1056,475	37,73
1056,839	36,89
1057,203	37,28
1057,568	37,04
1057,932	37,17
1058,296	37,9
1058,66	37,27
1059,024	37,02
1059,388	37,74
1059,752	36,8
1060,116	37,65
1060,48	38,89
1060,843	36,93
1061,207	37,19
1061,57	37,5
1061,934	37,42
1062,297	37,03
1062,66	36,71
1063,023	39,15
1063,386	37,87
1063,749	38,49
1064,112	37,42
1064,475	37,65
1064,838	37,65
1065,201	38,45
1065,563	36,9
1065,926	36,9
1066,288	36,76
1066,651	38,66
1067,013	38,56
1067,375	37,28
1067,737	38,29
1068,099	36,82
1068,461	38,44
1068,823	37,74
1069,185	37,99
1069,547	38,38
1069,909	36,83
1070,27	38,27
1070,632	37,21
1070,993	38,47
1071,355	38,32
1071,716	38,2
1072,077	38,31
1072,438	38,77
1072,799	38,41
1073,16	39,29
1073,521	38,42
1073,882	39,16
1074,243	38,69
1074,603	37,49
1074,964	38,43
1075,325	37,51
1075,685	37,72
1076,045	38,86
1076,406	38,5
1076,766	38,92
1077,126	39,29
1077,486	39,57
1077,846	39,82
1078,206	39,13
1078,566	37,96
1078,925	38,64
1079,285	38,86
1079,645	38,43
1080,004	37,95
1080,364	38,83
1080,723	39,53
1081,082	40,36
1081,442	38,14
1081,801	39,64
1082,16	39,77
1082,519	38,4
1082,878	40,51
1083,237	38,28
1083,595	39,66
1083,954	39,36
1084,313	38,73
1084,671	38,76
1085,03	39,36
1085,388	39,63
1085,746	40,12
1086,104	37,67
1086,463	38,86
1086,821	40,61
1087,179	40,72
1087,537	40,69
1087,894	42
1088,252	40,51
1088,61	40,12
1088,967	41,23
1089,325	40,11
1089,682	41,29
1090,04	42,15
1090,397	40,39
1090,754	41,88
1091,111	39,31
1091,469	42,8
1091,826	41,97
1092,182	40,74
1092,539	40,68
1092,896	38,53
1093,253	42,58
1093,609	40,07
1093,966	39,88
1094,322	40,25
1094,679	40,48
1095,035	43,06
1095,391	41,13
1095,748	40,51
1096,104	40,3
1096,46	43,72
1096,816	41,2
1097,171	42,54
1097,527	42,15
1097,883	43,11
1098,239	41,57
1098,594	41,07
1098,95	43,86
1099,305	41,64
1099,66	41,75
1100,016	41,11
1100,371	43,75
1100,726	43,15
1101,081	41,43
1101,436	42,78
1101,791	44,63
1102,146	43,28
1102,5	43,35
1102,855	42,22
1103,21	43,08
1103,564	42,63
1103,918	43,16
1104,273	43,98
1104,627	41,72
1104,981	40,82
1105,335	43,99
1105,69	45,71
1106,043	42,19
1106,397	41,97
1106,751	46,06
1107,105	44,09
1107,459	44,35
1107,812	45,27
1108,166	45,16
1108,519	44,28
1108,873	46,82
1109,226	48,8
1109,579	47,48
1109,932	48,6
1110,285	46,76
1110,638	48,39
1110,991	47,11
1111,344	44,34
1111,697	45,99
1112,05	45,07
1112,402	48,68
1112,755	46,88
1113,107	49,13
1113,46	48,49
1113,812	48,42
1114,164	51,46
1114,517	48,48
1114,869	126,85
1115,221	149,12
1115,573	131,06
1115,924	143,4
