Data from A6__Relative__0__00004.txt Node

Date: Thu Feb 01 16:14:40 CET 2024
User: diatiterra
Spectrometer: HDX00911
Trigger mode: 0
Integration Time (sec): 6,000000E-3
Scans to average: 2
Nonlinearity correction enabled: false
Boxcar width: 0
Storing dark spectrum: false
XAxis mode: Wavelengths
Number of Pixels in Spectrum: 2068
>>>>>Begin Spectral Data<<<<<
194,468	73,85
195,025	72,22
195,581	50
196,138	33,82
196,694	53,85
197,251	51,59
197,807	33,14
198,363	37,28
198,919	38,59
199,474	35,67
200,03	43,75
200,586	44,3
201,141	36,6
201,696	44,51
202,251	32,04
202,806	29,89
203,361	48,09
203,916	37,3
204,471	36,41
205,025	41,62
205,58	29,48
206,134	36,7
206,688	31,41
207,242	42,44
207,796	32,32
208,35	37,21
208,904	34,46
209,457	37,65
210,011	38,04
210,564	32,8
211,117	49,02
211,67	42,13
212,223	42,78
212,776	33,16
213,329	35,29
213,881	25,91
214,434	37,5
214,986	39,16
215,538	35,87
216,09	38,54
216,642	39,16
217,194	47,65
217,746	38,86
218,297	36,11
218,849	36,63
219,4	32,78
219,951	42,86
220,502	30,18
221,053	33,33
221,604	42,01
222,155	43,32
222,705	30,41
223,256	37,64
223,806	32,57
224,356	32,99
224,906	36,36
225,456	34,76
226,006	30,05
226,556	41,62
227,106	45,12
227,655	39,79
228,204	40,68
228,754	44,83
229,303	24,12
229,852	38,33
230,401	47,53
230,949	29,94
231,498	35,64
232,047	27,78
232,595	31,61
233,143	43,68
233,691	32,97
234,239	36,61
234,787	46,51
235,335	38,37
235,883	27,37
236,43	37,42
236,978	35,11
237,525	31,16
238,072	30
238,619	43,9
239,166	40,69
239,713	32,96
240,26	45,03
240,806	45,4
241,353	27,91
241,899	41,21
242,445	37,87
242,991	36,22
243,537	36,6
244,083	38,46
244,629	40
245,174	33,33
245,72	36,31
246,265	33,51
246,81	39,77
247,355	36,26
247,9	34,12
248,445	41,4
248,99	41,11
249,534	35,39
250,079	40,36
250,623	38,04
251,168	37,36
251,712	35,29
252,256	32,92
252,8	35,59
253,343	40,11
253,887	40,98
254,43	36,93
254,974	37,43
255,517	37,85
256,06	37,5
256,603	30,9
257,146	37,57
257,689	30,16
258,232	29,1
258,774	42,26
259,317	24,18
259,859	41,88
260,401	34,83
260,943	48,41
261,485	36,22
262,027	33,86
262,569	40,4
263,11	33,33
263,652	37,36
264,193	45,45
264,734	23,39
265,275	35,42
265,816	33,51
266,357	41,8
266,898	42,93
267,438	35,44
267,979	35,8
268,519	32,74
269,059	49,4
269,6	43,17
270,14	38,27
270,68	28,77
271,219	39,08
271,759	42,31
272,298	42,7
272,838	47,37
273,377	40,22
273,916	41,61
274,455	41,03
274,994	44,44
275,533	41,92
276,072	38,92
276,61	36,69
277,149	52,94
277,687	35,54
278,225	50
278,763	36,42
279,301	36,17
279,839	43,62
280,377	30,43
280,914	32,99
281,452	46,37
281,989	33,53
282,526	46,84
283,064	34,38
283,601	43,82
284,137	46,01
284,674	44,94
285,211	41,94
285,747	42,21
286,284	34,12
286,82	39,58
287,356	31,96
287,892	39,23
288,428	40,23
288,964	43,55
289,5	39,31
290,035	45,45
290,571	43,39
291,106	32,58
291,641	46,51
292,176	34,41
292,711	43,02
293,246	38,59
293,781	34,81
294,315	36,73
294,85	34,84
295,384	55,49
295,918	39,36
296,453	42,16
296,987	42,62
297,52	37,5
298,054	45,98
298,588	43,9
299,121	36,31
299,655	41,76
300,188	43,33
300,721	41,61
301,254	44,97
301,787	33,87
302,32	37,31
302,853	37,99
303,385	37,5
303,918	46,86
304,45	46,43
304,982	37,29
305,514	39,36
306,046	45,65
306,578	46,52
307,11	40,33
307,641	41,21
308,173	36,52
308,704	45,45
309,236	38,07
309,767	41,58
310,298	44,03
310,829	45,5
311,359	37,68
311,89	33,92
312,421	33,51
312,951	36,57
313,481	35,29
314,012	39,06
314,542	43,62
315,072	47,51
315,601	50
316,131	37,77
316,661	43,18
317,19	35,26
317,72	36,14
318,249	44,44
318,778	34,69
319,307	46,35
319,836	41,81
320,365	47,09
320,893	46,63
321,422	48,21
321,95	34,38
322,479	46,67
323,007	46,63
323,535	38,15
324,063	36,72
324,591	40,74
325,118	40,86
325,646	38,3
326,173	34,97
326,701	33,33
327,228	39,79
327,755	38,58
328,282	45,25
328,809	40,59
329,336	38,81
329,862	35,43
330,389	32,47
330,915	37,31
331,441	42,69
331,968	47,75
332,494	36,73
333,02	36,31
333,545	32,28
334,071	35,38
334,597	33,71
335,122	37,77
335,648	33,17
336,173	36,22
336,698	36,7
337,223	30,48
337,748	25,37
338,272	20,21
338,797	40,44
339,322	39,46
339,846	33,33
340,37	19,13
340,894	35,82
341,419	34,48
341,942	25,4
342,466	30,05
342,99	36,13
343,514	27,94
344,037	27,66
344,56	28,71
345,084	37,31
345,607	30,58
346,13	25,82
346,653	31,78
347,175	33,01
347,698	28,14
348,221	33,33
348,743	30,67
349,265	39,41
349,787	23,9
350,309	25,1
350,831	25,94
351,353	20,85
351,875	33,2
352,397	25,43
352,918	31,67
353,439	35,86
353,961	34,65
354,482	29,79
355,003	23,05
355,524	25,51
356,044	31,54
356,565	18,29
357,086	25,09
357,606	22,13
358,126	23,75
358,646	29
359,167	22,17
359,687	27,51
360,206	20,74
360,726	32,3
361,246	25,66
361,765	24,64
362,285	26,77
362,804	28,78
363,323	17,38
363,842	23,24
364,361	22,26
364,88	26,54
365,398	23,86
365,917	26,23
366,435	23
366,954	21,82
367,472	25,95
367,99	27,6
368,508	22,33
369,026	31,09
369,544	18,87
370,061	21,96
370,579	25,93
371,096	22,59
371,613	27,92
372,131	21,74
372,648	25,64
373,165	24,93
373,681	18,98
374,198	19,48
374,715	18,23
375,231	28,35
375,747	21,69
376,264	23,76
376,78	22,34
377,296	18,75
377,812	22,53
378,327	21,55
378,843	18,67
379,359	22,64
379,874	22,33
380,389	20,54
380,905	18,92
381,42	18,44
381,935	18,76
382,449	18,8
382,964	16,22
383,479	16,87
383,993	20,08
384,508	21,05
385,022	20,7
385,536	20,53
386,05	18,27
386,564	19,54
387,078	20,61
387,592	17,12
388,105	13,55
388,619	14,88
389,132	16,72
389,645	15,52
390,158	19,88
390,671	17,53
391,184	18,23
391,697	16,43
392,21	15,66
392,722	18,06
393,235	15,72
393,747	12,94
394,259	16,62
394,771	15,42
395,283	14,51
395,795	16,24
396,307	13,44
396,818	14,65
397,33	14,16
397,841	16,06
398,353	13,33
398,864	13,59
399,375	13,92
399,886	13,49
400,397	13,91
400,907	11,33
401,418	10,36
401,928	10,92
402,439	10,22
402,949	9,74
403,459	11,68
403,969	10,98
404,479	9,64
404,989	10,47
405,498	9,71
406,008	9,4
406,517	9,93
407,027	9,5
407,536	9,09
408,045	8,41
408,554	9,15
409,063	7,41
409,572	7,63
410,08	8,09
410,589	5,89
411,097	7,3
411,606	6,71
412,114	6,46
412,622	5,2
413,13	6,45
413,638	5,7
414,145	5,19
414,653	5,8
415,16	6,14
415,668	5,94
416,175	5,95
416,682	4,93
417,189	5,27
417,696	4,97
418,203	4,71
418,71	4,58
419,216	5,18
419,723	4,3
420,229	4,46
420,735	4,53
421,242	4,01
421,748	4,3
422,254	4,25
422,759	4,35
423,265	4,14
423,771	4,89
424,276	3,65
424,781	4,47
425,287	3,82
425,792	4,11
426,297	4,13
426,802	3,78
427,306	3,84
427,811	3,37
428,316	3,87
428,82	4,2
429,324	3,73
429,829	3,67
430,333	3,85
430,837	3,78
431,34	3,7
431,844	3,61
432,348	3,15
432,851	3,56
433,355	3,31
433,858	3,84
434,361	3,32
434,864	3,47
435,367	3,43
435,87	3,65
436,373	4,04
436,876	3,89
437,378	3,14
437,88	3,73
438,383	3,13
438,885	3,61
439,387	3,68
439,889	3,19
440,391	3,41
440,892	3,61
441,394	3,46
441,896	3,23
442,397	3,58
442,898	3,51
443,399	3,53
443,9	3,64
444,401	3,56
444,902	3,24
445,403	3,65
445,903	3,48
446,404	3,51
446,904	3,29
447,405	3,3
447,905	3,26
448,405	3,46
448,905	3,11
449,404	3,48
449,904	3,56
450,404	3,58
450,903	3,47
451,403	3,72
451,902	3,59
452,401	3,27
452,9	3,63
453,399	3,6
453,898	3,59
454,396	3,7
454,895	3,56
455,393	3,64
455,892	3,47
456,39	3,77
456,888	3,67
457,386	3,68
457,884	3,78
458,382	3,3
458,879	3,57
459,377	3,38
459,874	3,72
460,372	3,59
460,869	3,76
461,366	3,55
461,863	3,28
462,36	3,97
462,857	3,67
463,353	3,83
463,85	3,37
464,346	3,45
464,843	3,63
465,339	3,21
465,835	3,42
466,331	3,37
466,827	3,48
467,323	3,77
467,818	3,74
468,314	3,68
468,809	3,35
469,305	3,36
469,8	3,51
470,295	3,48
470,79	3,44
471,285	3,64
471,78	3,36
472,274	3,49
472,769	3,31
473,263	3,59
473,758	3,49
474,252	3,75
474,746	3,51
475,24	3,46
475,734	3,38
476,228	3,51
476,721	3,45
477,215	3,61
477,708	3,39
478,202	3,62
478,695	3,71
479,188	3,64
479,681	3,72
480,174	3,36
480,667	3,76
481,159	3,73
481,652	3,47
482,144	3,59
482,637	3,66
483,129	3,68
483,621	3,91
484,113	3,75
484,605	3,92
485,097	3,73
485,588	3,71
486,08	3,61
486,571	3,86
487,063	3,59
487,554	3,77
488,045	4,04
488,536	3,84
489,027	3,64
489,518	3,7
490,008	3,93
490,499	3,88
490,989	3,98
491,48	4,07
491,97	3,86
492,46	3,95
492,95	4,09
493,44	4,34
493,93	4,16
494,419	4,25
494,909	4,12
495,398	4,52
495,888	4,35
496,377	4,31
496,866	4,31
497,355	4,56
497,844	4,8
498,333	4,46
498,821	4,5
499,31	4,61
499,798	4,98
500,287	4,94
500,775	4,9
501,263	5,08
501,751	4,91
502,239	5,45
502,727	5,1
503,215	5,26
503,702	5,22
504,19	5,62
504,677	5,68
505,164	5,83
505,651	5,8
506,139	6,1
506,625	6,19
507,112	6,49
507,599	6,31
508,086	6,54
508,572	6,18
509,058	6,72
509,545	6,99
510,031	7
510,517	7,18
511,003	7,64
511,489	7,39
511,974	7,58
512,46	7,96
512,946	7,88
513,431	8,45
513,916	8,38
514,401	8,51
514,887	8,66
515,371	8,77
515,856	9,02
516,341	9,18
516,826	9,51
517,31	9,4
517,795	10,09
518,279	10,29
518,763	10,31
519,247	10,6
519,731	10,74
520,215	10,87
520,699	10,86
521,182	11,61
521,666	11,38
522,149	11,76
522,633	11,75
523,116	12,2
523,599	12,24
524,082	12,59
524,565	13,05
525,048	13,2
525,53	13,22
526,013	13,25
526,495	13,68
526,978	13,81
527,46	14,06
527,942	14,39
528,424	14,21
528,906	14,06
529,388	14,89
529,87	14,84
530,351	15,04
530,833	14,84
531,314	15,31
531,795	15,17
532,277	15,18
532,758	15,52
533,238	15,45
533,719	15,73
534,2	16
534,681	15,78
535,161	16,27
535,642	15,92
536,122	16,1
536,602	16,38
537,082	16,09
537,562	16,21
538,042	16,2
538,522	16,42
539,001	16,24
539,481	16,14
539,96	16,37
540,44	16,48
540,919	16,3
541,398	16,56
541,877	16,38
542,356	16,56
542,835	16,7
543,313	16,51
543,792	16,67
544,27	16,68
544,749	16,62
545,227	17,07
545,705	16,81
546,183	16,83
546,661	16,68
547,139	16,86
547,616	16,73
548,094	16,86
548,571	17,1
549,049	17,04
549,526	17,23
550,003	17,04
550,48	17,28
550,957	16,95
551,434	16,96
551,911	17,5
552,387	17,19
552,864	17,39
553,34	17,22
553,817	17,26
554,293	17,25
554,769	17,03
555,245	17,36
555,721	17,19
556,197	17,14
556,672	17,07
557,148	17,14
557,623	17,21
558,099	16,92
558,574	17,03
559,049	17,1
559,524	16,71
559,999	17,44
560,474	16,94
560,948	17,07
561,423	16,56
561,897	16,95
562,372	16,64
562,846	16,69
563,32	16,57
563,794	16,49
564,268	16,49
564,742	16,26
565,216	16,28
565,69	16,2
566,163	16,08
566,636	15,93
567,11	15,72
567,583	15,86
568,056	15,64
568,529	15,3
569,002	15,35
569,475	15,51
569,947	15,31
570,42	15,23
570,892	14,88
571,365	14,75
571,837	14,55
572,309	14,27
572,781	14,4
573,253	14
573,725	14,36
574,197	13,91
574,668	13,97
575,14	13,93
575,611	13,77
576,082	13,71
576,554	13,67
577,025	13,48
577,496	13,26
577,967	13,19
578,437	12,94
578,908	13,22
579,379	12,96
579,849	12,99
580,319	12,7
580,79	12,81
581,26	12,53
581,73	12,68
582,2	12,26
582,669	12,12
583,139	12,36
583,609	12,4
584,078	11,91
584,548	11,73
585,017	11,92
585,486	11,89
585,955	11,95
586,424	11,84
586,893	11,86
587,362	11,48
587,83	11,82
588,299	11,52
588,767	11,6
589,236	11,64
589,704	11,23
590,172	11,5
590,64	11,55
591,108	11,22
591,576	11,32
592,043	11,17
592,511	11,03
592,978	10,99
593,446	11,24
593,913	11,17
594,38	10,67
594,847	11,02
595,314	10,95
595,781	10,71
596,248	10,82
596,715	10,79
597,181	10,85
597,647	10,75
598,114	10,91
598,58	10,97
599,046	10,61
599,512	10,68
599,978	10,47
600,444	10,66
600,91	10,46
601,375	10,47
601,841	10,35
602,306	10,64
602,771	10,52
603,236	10,75
603,702	10,42
604,167	10,27
604,631	10,43
605,096	10,33
605,561	10,16
606,025	10,34
606,49	10,12
606,954	9,95
607,418	9,96
607,882	10,01
608,347	9,94
608,81	10,1
609,274	9,97
609,738	9,89
610,202	9,8
610,665	9,88
611,128	9,67
611,592	9,61
612,055	9,64
612,518	9,62
612,981	9,54
613,444	9,45
613,907	9,41
614,369	9,25
614,832	9,2
615,294	9,12
615,757	8,94
616,219	9,14
616,681	9,16
617,143	8,84
617,605	8,81
618,067	8,86
618,529	8,69
618,99	8,67
619,452	8,63
619,913	8,63
620,375	8,74
620,836	8,76
621,297	8,66
621,758	8,49
622,219	8,22
622,68	8,53
623,14	8,56
623,601	8,48
624,061	8,58
624,522	8,33
624,982	8,39
625,442	8,17
625,902	8,46
626,362	8,14
626,822	8,25
627,282	8,25
627,742	8,29
628,201	8,3
628,661	8,22
629,12	8,19
629,579	8,27
630,038	8,22
630,497	8,15
630,956	8,09
631,415	8,14
631,874	8,22
632,332	8,15
632,791	8,05
633,249	8,04
633,708	8,1
634,166	7,83
634,624	7,85
635,082	7,85
635,54	7,72
635,998	7,82
636,455	7,65
636,913	7,7
637,37	7,53
637,828	7,19
638,285	7,31
638,742	7,25
639,199	7,23
639,656	7,23
640,113	7,17
640,57	6,91
641,027	7,05
641,483	6,82
641,94	6,95
642,396	6,56
642,852	6,57
643,309	6,44
643,765	6,29
644,221	6,34
644,676	6,17
645,132	6,25
645,588	6,18
646,043	6,08
646,499	6,09
646,954	5,91
647,409	5,95
647,864	5,72
648,319	5,71
648,774	5,72
649,229	5,6
649,684	5,63
650,139	5,47
650,593	5,45
651,047	5,42
651,502	5,4
651,956	5,37
652,41	5,28
652,864	5,35
653,318	5,36
653,772	5,28
654,225	5,22
654,679	5,29
655,133	5,17
655,586	5,16
656,039	5,23
656,492	5,13
656,946	5,1
657,399	5,11
657,851	5,04
658,304	5,01
658,757	5,05
659,209	4,95
659,662	4,89
660,114	4,91
660,567	4,72
661,019	4,68
661,471	4,63
661,923	4,7
662,375	4,54
662,826	4,6
663,278	4,57
663,73	4,44
664,181	4,41
664,632	4,46
665,084	4,41
665,535	4,43
665,986	4,26
666,437	4,32
666,888	4,26
667,338	4,34
667,789	4,36
668,24	4,24
668,69	4,26
669,14	4,23
669,591	4,31
670,041	4,29
670,491	4,34
670,941	4,32
671,391	4,4
671,84	4,25
672,29	4,33
672,74	4,44
673,189	4,4
673,638	4,58
674,088	4,5
674,537	4,65
674,986	4,63
675,435	4,69
675,883	4,78
676,332	4,81
676,781	4,88
677,229	5,01
677,678	5,08
678,126	5,16
678,574	5,2
679,022	5,18
679,47	5,32
679,918	5,33
680,366	5,56
680,814	5,64
681,261	5,7
681,709	5,77
682,156	5,85
682,604	5,79
683,051	6,01
683,498	6,05
683,945	6,26
684,392	6,13
684,839	6,35
685,286	6,3
685,732	6,6
686,179	6,67
686,625	6,76
687,071	6,97
687,518	7
687,964	7,19
688,41	7,37
688,856	7,6
689,301	7,72
689,747	7,8
690,193	8,23
690,638	8,32
691,084	8,5
691,529	8,9
691,974	9,02
692,419	9,45
692,864	9,76
693,309	10
693,754	10,35
694,199	10,51
694,643	11
695,088	11,36
695,532	11,73
695,977	12,07
696,421	12,45
696,865	12,72
697,309	13,11
697,753	13,58
698,197	14,09
698,64	14,46
699,084	14,78
699,527	14,92
699,971	15,54
700,414	15,74
700,857	16,36
701,3	16,61
701,743	16,76
702,186	17,35
702,629	17,77
703,072	18
703,515	18,44
703,957	18,62
704,399	19,07
704,842	19,34
705,284	19,6
705,726	20,07
706,168	20,42
706,61	20,83
707,052	21,08
707,494	21,55
707,935	22,07
708,377	22,31
708,818	22,26
709,26	22,65
709,701	23,13
710,142	23,41
710,583	23,82
711,024	23,82
711,465	24,19
711,905	24,52
712,346	24,71
712,787	25,09
713,227	25,21
713,667	25,98
714,108	26,1
714,548	26,52
714,988	26,56
715,428	26,93
715,868	27,25
716,307	27,46
716,747	27,71
717,186	28,07
717,626	28,23
718,065	28,56
718,504	28,6
718,944	29,2
719,383	29,36
719,822	29,46
720,261	29,55
720,699	29,75
721,138	29,98
721,576	30,7
722,015	30,67
722,453	30,9
722,892	30,81
723,33	30,93
723,768	31,31
724,206	31,52
724,644	31,7
725,081	31,96
725,519	31,89
725,957	32,45
726,394	32,47
726,832	32,91
727,269	32,86
727,706	32,68
728,143	32,97
728,58	33,2
729,017	33,45
729,454	33,46
729,89	33,89
730,327	33,99
730,764	33,83
731,2	33,85
731,636	34,02
732,072	34,34
732,509	34,55
732,945	34,58
733,38	34,38
733,816	34,64
734,252	34,71
734,688	34,64
735,123	35,05
735,559	35
735,994	34,99
736,429	35,2
736,864	35,09
737,299	35,09
737,734	35,47
738,169	35,37
738,604	35,57
739,038	35,47
739,473	35,66
739,907	35,41
740,342	35,76
740,776	35,51
741,21	35,4
741,644	35,6
742,078	35,8
742,512	35,44
742,946	35,56
743,379	35,63
743,813	35,6
744,246	35,34
744,68	36
745,113	35,78
745,546	35,96
745,979	35,66
746,412	35,87
746,845	35,75
747,278	35,93
747,711	35,76
748,143	35,69
748,576	35,73
749,008	35,66
749,441	35,89
749,873	35,67
750,305	35,75
750,737	35,78
751,169	35,44
751,601	35,57
752,032	35,87
752,464	35,43
752,896	35,55
753,327	35,64
753,758	35,72
754,19	35,49
754,621	35,71
755,052	35,12
755,483	35,31
755,914	35,49
756,344	35,52
756,775	35,64
757,206	35,28
757,636	35,19
758,066	35,13
758,497	35,33
758,927	34,87
759,357	35,04
759,787	35,13
760,217	34,8
760,647	35,19
761,076	34,92
761,506	35,22
761,935	35,39
762,365	35,39
762,794	35,1
763,223	34,91
763,653	35,06
764,082	35,24
764,51	34,85
764,939	34,72
765,368	35,06
765,797	34,68
766,225	34,99
766,654	35
767,082	34,82
767,51	34,49
767,938	34,42
768,367	34,71
768,795	34,74
769,222	34,62
769,65	34,85
770,078	34,54
770,505	34,49
770,933	34,28
771,36	34,46
771,788	34,35
772,215	34,62
772,642	34,51
773,069	34,52
773,496	34,5
773,923	34,48
774,349	34,33
774,776	34,45
775,203	34,4
775,629	34,63
776,055	34,11
776,482	34,34
776,908	34,28
777,334	34,2
777,76	34,14
778,186	34,22
778,611	34,24
779,037	34,26
779,463	33,8
779,888	34,28
780,314	34,08
780,739	33,99
781,164	34,1
781,589	34,02
782,014	33,73
782,439	34,02
782,864	34,26
783,289	33,85
783,713	34,2
784,138	33,91
784,562	34,09
784,987	33,93
785,411	34,26
785,835	34,12
786,259	33,72
786,683	33,83
787,107	33,94
787,531	33,87
787,954	33,93
788,378	33,9
788,802	33,93
789,225	33,59
789,648	34,19
790,071	33,94
790,495	33,72
790,918	33,96
791,34	34,01
791,763	33,85
792,186	33,82
792,609	33,69
793,031	34,05
793,454	33,78
793,876	33,86
794,298	33,88
794,721	33,91
795,143	33,96
795,565	33,67
795,986	33,72
796,408	33,82
796,83	33,69
797,252	33,62
797,673	33,93
798,094	33,52
798,516	33,91
798,937	34,04
799,358	33,7
799,779	33,85
800,2	33,69
800,621	33,55
801,042	33,87
801,462	33,68
801,883	33,62
802,303	33,81
802,724	33,67
803,144	33,77
803,564	33,71
803,984	33,86
804,404	33,65
804,824	33,73
805,244	33,91
805,664	33,61
806,084	33,46
806,503	33,78
806,923	33,56
807,342	33,56
807,761	33,51
808,18	33,5
808,599	33,69
809,018	33,73
809,437	33,39
809,856	33,67
810,275	33,79
810,693	33,67
811,112	33,45
811,53	33,67
811,949	33,48
812,367	33,7
812,785	33,47
813,203	33,69
813,621	33,65
814,039	33,54
814,457	33,36
814,874	33,45
815,292	33,68
815,709	33,35
816,127	33,68
816,544	33,4
816,961	33,34
817,378	33,54
817,795	33,65
818,212	33,3
818,629	33,07
819,046	33,82
819,462	33,49
819,879	33,59
820,295	33,75
820,712	33,29
821,128	33,31
821,544	33,5
821,96	33,4
822,376	33,55
822,792	33,4
823,208	33,22
823,624	33,52
824,039	33,01
824,455	33,45
824,87	33,32
825,286	33,5
825,701	33,34
826,116	33,17
826,531	33,64
826,946	33,45
827,361	33,17
827,776	33,31
828,19	33,28
828,605	33,56
829,02	33,6
829,434	33,36
829,848	33,15
830,263	33,32
830,677	33,51
831,091	33,8
831,505	33,65
831,919	33,5
832,332	33,72
832,746	33,4
833,16	33,32
833,573	33,35
833,987	33,53
834,4	33,24
834,813	33,55
835,226	33,13
835,639	33,6
836,052	33,39
836,465	33,5
836,878	33,27
837,29	33,34
837,703	33,28
838,116	33,3
838,528	33,6
838,94	33,39
839,352	33,45
839,765	33,13
840,177	33,37
840,589	33,26
841	33,39
841,412	33,32
841,824	33,09
842,235	33,25
842,647	33,26
843,058	32,92
843,47	33,31
843,881	33,51
844,292	33,64
844,703	33,48
845,114	33,3
845,525	33,36
845,935	33,11
846,346	33,12
846,757	32,97
847,167	33,03
847,577	33,22
847,988	33,06
848,398	32,99
848,808	33,5
849,218	33,02
849,628	32,96
850,038	33,15
850,448	33,07
850,857	33,47
851,267	32,91
851,676	33,32
852,086	33,24
852,495	32,99
852,904	33,64
853,313	33,25
853,722	33,03
854,131	33,17
854,54	33,15
854,949	32,84
855,357	33,36
855,766	33,14
856,174	33,31
856,583	33,43
856,991	33,08
857,399	33,19
857,807	33,47
858,215	33,08
858,623	33,11
859,031	33,24
859,439	33,41
859,846	32,95
860,254	33,05
860,661	32,91
861,069	33,21
861,476	32,89
861,883	33,07
862,29	33,17
862,697	33,24
863,104	33,44
863,511	33,06
863,918	33,08
864,325	32,89
864,731	33,13
865,138	33,05
865,544	32,98
865,95	33,16
866,357	33,1
866,763	32,86
867,169	32,97
867,575	33,15
867,98	33,41
868,386	32,97
868,792	32,85
869,197	33,22
869,603	33,3
870,008	33,36
870,414	32,7
870,819	32,9
871,224	32,95
871,629	32,94
872,034	33,26
872,439	32,91
872,844	32,86
873,248	33,1
873,653	33,19
874,057	33,27
874,462	33
874,866	32,85
875,27	33,02
875,674	32,87
876,078	33,11
876,482	32,89
876,886	33
877,29	33,04
877,694	33,19
878,097	33,04
878,501	33,15
878,904	33,01
879,308	33,26
879,711	32,91
880,114	33,21
880,517	32,74
880,92	33,07
881,323	33,21
881,726	33,15
882,128	33,03
882,531	33,35
882,934	33
883,336	33,26
883,738	33,23
884,141	32,98
884,543	32,82
884,945	32,91
885,347	32,98
885,749	33,12
886,151	32,95
886,552	33,23
886,954	33,01
887,355	32,82
887,757	33,13
888,158	32,9
888,56	33,38
888,961	32,98
889,362	32,94
889,763	33,07
890,164	32,89
890,565	32,79
890,965	33,25
891,366	33,16
891,767	33,38
892,167	32,84
892,567	32,68
892,968	32,61
893,368	32,79
893,768	33,05
894,168	33,09
894,568	33,24
894,968	33
895,368	33
895,767	33,01
896,167	32,8
896,566	32,79
896,966	32,7
897,365	33
897,764	32,97
898,164	32,95
898,563	33,11
898,962	33,07
899,361	32,83
899,759	33,17
900,158	32,7
900,557	33,18
900,955	32,71
901,354	33,14
901,752	32,85
902,15	32,98
902,548	32,67
902,947	33,03
903,345	32,96
903,742	32,88
904,14	32,94
904,538	33
904,936	32,66
905,333	33
905,731	32,82
906,128	32,71
906,525	32,99
906,923	33,18
907,32	32,93
907,717	32,64
908,114	33,1
908,511	32,8
908,907	33,5
909,304	33,09
909,701	33,08
910,097	32,82
910,494	32,98
910,89	32,65
911,286	33,03
911,682	32,89
912,078	33,02
912,474	32,95
912,87	32,57
913,266	33,23
913,662	32,46
914,058	33,07
914,453	32,84
914,849	32,76
915,244	33,08
915,639	33,4
916,034	33,13
916,43	33,03
916,825	33,14
917,22	32,92
917,614	33,1
918,009	32,89
918,404	33,06
918,798	32,75
919,193	32,97
919,587	32,65
919,982	33,12
920,376	32,82
920,77	32,83
921,164	33,05
921,558	32,69
921,952	32,8
922,346	32,85
922,74	32,99
923,133	33,02
923,527	32,93
923,92	32,95
924,314	32,93
924,707	33,08
925,1	32,99
925,493	32,6
925,886	32,89
926,279	32,86
926,672	32,66
927,065	32,6
927,457	32,8
927,85	32,81
928,243	32,91
928,635	33,19
929,027	32,77
929,42	32,51
929,812	32,42
930,204	32,98
930,596	32,63
930,988	32,64
931,379	32,71
931,771	32,74
932,163	32,83
932,554	32,98
932,946	32,84
933,337	32,85
933,729	32,85
934,12	32,7
934,511	32,68
934,902	32,38
935,293	32,74
935,684	33,04
936,075	32,41
936,465	32,66
936,856	32,39
937,246	32,5
937,637	32,64
938,027	32,71
938,417	32,96
938,808	32,65
939,198	32,27
939,588	32,63
939,978	32,43
940,368	32,46
940,757	33,21
941,147	32,84
941,537	32,55
941,926	31,76
942,315	32,28
942,705	32,08
943,094	33
943,483	32,94
943,872	32,15
944,261	32,46
944,65	32,52
945,039	32,21
945,428	32,72
945,816	32,53
946,205	33,15
946,593	32,16
946,982	32,27
947,37	33,07
947,758	33,06
948,146	32,73
948,534	32,85
948,922	32,44
949,31	32,67
949,698	33,33
950,086	32,25
950,473	32,27
950,861	33,14
951,248	32,16
951,636	32,24
952,023	33,08
952,41	32,19
952,797	32,91
953,184	32,25
953,571	32,63
953,958	33,13
954,345	31,97
954,731	32,67
955,118	31,87
955,505	31,99
955,891	32,56
956,277	31,62
956,664	32,18
957,05	32,69
957,436	31,83
957,822	32
958,208	32,47
958,594	32,73
958,979	31,95
959,365	31,89
959,751	31,73
960,136	32,29
960,522	32,43
960,907	32,18
961,292	32,42
961,677	32,7
962,062	32,37
962,447	32,43
962,832	32,03
963,217	31,63
963,602	31,87
963,986	32,45
964,371	31,73
964,756	31,68
965,14	32
965,524	31,88
965,908	32,55
966,293	32,09
966,677	31,93
967,061	32,47
967,445	31,88
967,828	31,96
968,212	32,32
968,596	32,49
968,979	31,9
969,363	31,85
969,746	32,25
970,129	32,26
970,513	32,51
970,896	32,31
971,279	31,88
971,662	31,93
972,045	32,02
972,428	32,18
972,81	32,27
973,193	32,02
973,575	31,9
973,958	32,03
974,34	31,84
974,723	32,11
975,105	32,59
975,487	32,25
975,869	32,34
976,251	32,76
976,633	32,02
977,015	32,23
977,396	32,01
977,778	32,02
978,16	31,84
978,541	32,23
978,922	32,15
979,304	32,17
979,685	32,14
980,066	32,23
980,447	31,75
980,828	31,97
981,209	32,66
981,59	31,83
981,97	32,21
982,351	32,09
982,732	32,44
983,112	31,87
983,493	32,19
983,873	32,08
984,253	31,79
984,633	32,12
985,013	32,19
985,393	32,5
985,773	32,35
986,153	32,27
986,533	31,96
986,912	32,67
987,292	32,33
987,671	32,85
988,051	32,07
988,43	32,06
988,809	32,93
989,188	32,69
989,567	32,09
989,946	32,16
990,325	31,69
990,704	32,12
991,083	31,79
991,461	32,15
991,84	31,94
992,218	31,54
992,597	32,05
992,975	32,3
993,353	32,13
993,732	31,97
994,11	31,78
994,488	31,8
994,866	32,16
995,243	32,48
995,621	32,27
995,999	32,24
996,376	32,1
996,754	32,32
997,131	32,06
997,509	32,66
997,886	32,16
998,263	32,37
998,64	32,44
999,017	31,67
999,394	32,32
999,771	32,2
1000,148	31,8
1000,524	32,39
1000,901	32,04
1001,277	32,44
1001,654	32,58
1002,03	32,09
1002,406	32,26
1002,783	32,23
1003,159	32,19
1003,535	31,95
1003,911	32,17
1004,286	32,27
1004,662	32,22
1005,038	32,6
1005,414	32,47
1005,789	32,66
1006,164	32,55
1006,54	32,34
1006,915	32,49
1007,29	32,42
1007,665	32,98
1008,04	32,33
1008,415	32,81
1008,79	32,74
1009,165	32,17
1009,54	32,71
1009,914	32,68
1010,289	31,58
1010,663	32,7
1011,038	32,62
1011,412	32,46
1011,786	32,65
1012,16	32,86
1012,535	32,01
1012,909	32,5
1013,282	32,36
1013,656	32,33
1014,03	32,52
1014,404	32,02
1014,777	32,82
1015,151	32,73
1015,524	32,41
1015,897	32,17
1016,271	32,99
1016,644	32,58
1017,017	32,56
1017,39	32,85
1017,763	32,51
1018,136	33,35
1018,508	32,62
1018,881	32,13
1019,254	32,59
1019,626	32,51
1019,999	33,33
1020,371	32,8
1020,743	32,57
1021,116	32,14
1021,488	32,67
1021,86	32,16
1022,232	31,98
1022,604	32,02
1022,975	32,18
1023,347	32,04
1023,719	33,3
1024,09	32,66
1024,462	32,29
1024,833	33,14
1025,204	32,93
1025,576	32,2
1025,947	32,52
1026,318	32,44
1026,689	33,4
1027,06	32,8
1027,431	32,75
1027,801	32,95
1028,172	33,32
1028,543	33,72
1028,913	32,14
1029,284	32,83
1029,654	33,16
1030,024	31,63
1030,394	33,15
1030,764	32,96
1031,135	32,85
1031,504	33,05
1031,874	32,49
1032,244	32,66
1032,614	33,06
1032,983	32,48
1033,353	33,23
1033,722	32,32
1034,092	32,66
1034,461	32,94
1034,83	32,23
1035,2	32,47
1035,569	31,96
1035,938	33,27
1036,307	32,24
1036,675	33,32
1037,044	32,25
1037,413	32,37
1037,781	32,4
1038,15	32,7
1038,518	32,47
1038,887	33,28
1039,255	32,61
1039,623	33,42
1039,991	33,74
1040,359	33,04
1040,727	31,33
1041,095	32,67
1041,463	32,99
1041,831	32,71
1042,198	32,76
1042,566	31,51
1042,933	31,99
1043,301	33
1043,668	32,9
1044,035	32,67
1044,402	33,04
1044,77	32,41
1045,137	33,42
1045,503	32,5
1045,87	31,95
1046,237	32,92
1046,604	32,86
1046,97	34,14
1047,337	33,33
1047,703	33,12
1048,07	32,4
1048,436	32,48
1048,802	31,85
1049,168	34,42
1049,534	32,7
1049,9	32,33
1050,266	32,5
1050,632	32,25
1050,998	32,71
1051,364	32,42
1051,729	33,13
1052,095	32,55
1052,46	32,83
1052,825	33,24
1053,191	33,81
1053,556	32,4
1053,921	33,2
1054,286	32,96
1054,651	32,78
1055,016	32,92
1055,381	33,18
1055,745	33,17
1056,11	32,51
1056,475	33,83
1056,839	32,59
1057,203	31,21
1057,568	32,66
1057,932	32,87
1058,296	32,94
1058,66	32,47
1059,024	33,02
1059,388	33,57
1059,752	34
1060,116	33,65
1060,48	32,58
1060,843	33,55
1061,207	33,38
1061,57	32,08
1061,934	33,19
1062,297	32,54
1062,66	33,78
1063,023	33,57
1063,386	33,1
1063,749	33,11
1064,112	31,75
1064,475	33,85
1064,838	32,71
1065,201	33,83
1065,563	33,92
1065,926	33,25
1066,288	32,08
1066,651	34,22
1067,013	33,38
1067,375	32,77
1067,737	33,8
1068,099	31,68
1068,461	31,86
1068,823	33,7
1069,185	32,66
1069,547	33,95
1069,909	32,49
1070,27	32,98
1070,632	32,37
1070,993	32,06
1071,355	33,07
1071,716	31,91
1072,077	33,09
1072,438	32,69
1072,799	33,86
1073,16	32,87
1073,521	32,94
1073,882	32,24
1074,243	31,65
1074,603	32,47
1074,964	32,33
1075,325	34,79
1075,685	34,35
1076,045	31,66
1076,406	33,77
1076,766	31,97
1077,126	33,28
1077,486	32,95
1077,846	32,67
1078,206	34,28
1078,566	33,95
1078,925	31,65
1079,285	32,69
1079,645	33,8
1080,004	33,14
1080,364	33,73
1080,723	32,45
1081,082	33,26
1081,442	33,65
1081,801	33,97
1082,16	32,29
1082,519	34,51
1082,878	34,85
1083,237	30,9
1083,595	32,46
1083,954	32,19
1084,313	33,47
1084,671	31,15
1085,03	32,26
1085,388	33,62
1085,746	34,19
1086,104	32,74
1086,463	33,11
1086,821	31,37
1087,179	32,61
1087,537	31,8
1087,894	33,97
1088,252	33,06
1088,61	32,15
1088,967	34,86
1089,325	32,74
1089,682	32,87
1090,04	35,16
1090,397	32,95
1090,754	34,45
1091,111	32,53
1091,469	33,6
1091,826	32,75
1092,182	33,74
1092,539	31,93
1092,896	33,05
1093,253	33,71
1093,609	32,79
1093,966	32,68
1094,322	32,11
1094,679	33,01
1095,035	31,99
1095,391	32,64
1095,748	34,85
1096,104	33,96
1096,46	34,51
1096,816	34,92
1097,171	34,57
1097,527	33,68
1097,883	34,41
1098,239	33,12
1098,594	34,02
1098,95	32,57
1099,305	33,6
1099,66	36,16
1100,016	31,32
1100,371	33,23
1100,726	33,01
1101,081	32,57
1101,436	33,96
1101,791	34,43
1102,146	33,14
1102,5	31,46
1102,855	33,55
1103,21	36,79
1103,564	37,02
1103,918	32,12
1104,273	33,91
1104,627	33,36
1104,981	33,72
1105,335	32,68
1105,69	34,35
1106,043	36,1
1106,397	34,51
1106,751	34,66
1107,105	34,42
1107,459	32,55
1107,812	33,09
1108,166	36,88
1108,519	34,24
1108,873	34,05
1109,226	33,12
1109,579	35,24
1109,932	32,95
1110,285	33,96
1110,638	31,44
1110,991	33,8
1111,344	37,45
1111,697	31,24
1112,05	34,14
1112,402	36,03
1112,755	31,18
1113,107	35,64
1113,46	35,33
1113,812	35,15
1114,164	34,21
1114,517	35,37
1114,869	48,33
1115,221	32,79
1115,573	63,08
1115,924	67,61
