Data from C2___Relative__1__00017.txt Node

Date: Thu Feb 01 16:16:44 CET 2024
User: diatiterra
Spectrometer: HDX00911
Trigger mode: 0
Integration Time (sec): 6,000000E-3
Scans to average: 2
Nonlinearity correction enabled: false
Boxcar width: 0
Storing dark spectrum: false
XAxis mode: Wavelengths
Number of Pixels in Spectrum: 2068
>>>>>Begin Spectral Data<<<<<
194,468	132,31
195,025	81,94
195,581	92,42
196,138	77,94
196,694	84,62
197,251	76,98
197,807	44,19
198,363	53,25
198,919	55,43
199,474	52,23
200,03	65,91
200,586	57,59
201,141	58,76
201,696	56,65
202,251	50,28
202,806	56,9
203,361	60,66
203,916	61,62
204,471	50,54
205,025	55,68
205,58	50,87
206,134	56,91
206,688	54,97
207,242	63,95
207,796	48,48
208,35	56,4
208,904	47,46
209,457	57,06
210,011	55,21
210,564	57,53
211,117	65,36
211,67	58,43
212,223	60,82
212,776	50,8
213,329	61,5
213,881	59,07
214,434	54,5
214,986	66,27
215,538	54,35
216,09	56,77
216,642	72,29
217,194	58,82
217,746	59,43
218,297	60
218,849	75
219,4	55
219,951	70,29
220,502	56,21
221,053	55,36
221,604	56,21
222,155	58,29
222,705	55,56
223,256	53,37
223,806	48
224,356	61,34
224,906	63,64
225,456	55,08
226,006	44,26
226,556	58,38
227,106	53,66
227,655	48,69
228,204	53,11
228,754	69,54
229,303	51,18
229,852	52,22
230,401	62,96
230,949	53,11
231,498	57,98
232,047	51,67
232,595	48,85
233,143	54,21
233,691	51,1
234,239	52,46
234,787	60,47
235,335	57,56
235,883	53,68
236,43	61,29
236,978	52,66
237,525	50,75
238,072	51,11
238,619	59,76
239,166	51,96
239,713	47,49
240,26	63,16
240,806	65,03
241,353	45,93
241,899	51,1
242,445	47,34
242,991	48,65
243,537	52,94
244,083	64,84
244,629	48,5
245,174	50,57
245,72	51,96
246,265	50,26
246,81	48,3
247,355	56,59
247,9	52,35
248,445	56,69
248,99	51,67
249,534	56,74
250,079	54,82
250,623	47,83
251,168	53,45
251,712	54,12
252,256	49,69
252,8	45,76
253,343	60,99
253,887	51,91
254,43	57,95
254,974	52,51
255,517	50,28
256,06	53,41
256,603	48,88
257,146	43,65
257,689	50,26
258,232	56,08
258,774	58,33
259,317	55,49
259,859	50,79
260,401	46,07
260,943	64,33
261,485	61,62
262,027	52,91
262,569	51,66
263,11	40,11
263,652	56,04
264,193	55,68
264,734	64,91
265,275	55,21
265,816	54,59
266,357	53,44
266,898	45,45
267,438	56,96
267,979	49,43
268,519	53,57
269,059	49,4
269,6	52,46
270,14	51,02
270,68	47,95
271,219	57,47
271,759	64,1
272,298	54,59
272,838	48,54
273,377	55,87
273,916	55,03
274,455	63,59
274,994	54,44
275,533	62,28
276,072	61,68
276,61	58,58
277,149	64,12
277,687	54,82
278,225	53,53
278,763	54,91
279,301	57,98
279,839	52,13
280,377	55,9
280,914	48,45
281,452	60,89
281,989	56,47
282,526	58,23
283,064	57,5
283,601	60,67
284,137	51,53
284,674	58,99
285,211	59,14
285,747	59,8
286,284	54,12
286,82	51,04
287,356	48,97
287,892	55,25
288,428	56,9
288,964	52,15
289,5	55,49
290,035	62,5
290,571	56,61
291,106	58,43
291,641	56,98
292,176	53,23
292,711	55,23
293,246	57,61
293,781	60,22
294,315	52,55
294,85	50,32
295,384	57,23
295,918	54,26
296,453	55,14
296,987	44,26
297,52	55,98
298,054	54,6
298,588	65,24
299,121	55,31
299,655	50,59
300,188	64,67
300,721	57,14
301,254	57,14
301,787	51,61
302,32	48,19
302,853	70,39
303,385	53,8
303,918	61,14
304,45	60,2
304,982	51,98
305,514	50
306,046	52,17
306,578	60,96
307,11	54,7
307,641	56,04
308,173	54,49
308,704	54,55
309,236	43,65
309,767	53,16
310,298	56,6
310,829	56,5
311,359	54,59
311,89	61,4
312,421	55,14
312,951	50,86
313,481	52,94
314,012	50,52
314,542	52,13
315,072	62,43
315,601	52,6
316,131	53,72
316,661	55,11
317,19	56,65
317,72	50,6
318,249	56,67
318,778	58,5
319,307	58,85
319,836	69,49
320,365	60,85
320,893	58,03
321,422	69,64
321,95	61,98
322,479	67,88
323,007	58,43
323,535	69,94
324,063	53,11
324,591	53,44
325,118	58,6
325,646	59,57
326,173	67,76
326,701	49,23
327,228	62,3
327,755	55,33
328,282	51,4
328,809	59,41
329,336	54,23
329,862	53,71
330,389	55,15
330,915	55,96
331,441	62,57
331,968	67,42
332,494	55,61
333,02	60,89
333,545	50,79
334,071	49,23
334,597	47,19
335,122	51,06
335,648	52,4
336,173	49,73
336,698	48,94
337,223	53,48
337,748	42,79
338,272	45,21
338,797	55,74
339,322	50,81
339,846	46,77
340,37	47,54
340,894	37,31
341,419	56,32
341,942	47,62
342,466	56,99
342,99	48,17
343,514	36,27
344,037	44,15
344,56	42,11
345,084	44,78
345,607	44,66
346,13	48,83
346,653	59,35
347,175	39,71
347,698	44,72
348,221	53,52
348,743	46,64
349,265	48,28
349,787	42,44
350,309	35,22
350,831	46,86
351,353	37,44
351,875	53,85
352,397	36,64
352,918	46,67
353,439	48,1
353,961	36,61
354,482	46,81
355,003	41,15
355,524	35,39
356,044	46,47
356,565	40,65
357,086	35,21
357,606	33,62
358,126	32,95
358,646	41,64
359,167	31,74
359,687	37,55
360,206	36,67
360,726	36,19
361,246	37,74
361,765	36,96
362,285	39,41
362,804	43,88
363,323	34,75
363,842	34,51
364,361	29,56
364,88	34,3
365,398	41,75
365,917	33,95
366,435	38,67
366,954	32,57
367,472	39,56
367,99	35,06
368,508	31,67
369,026	38,78
369,544	34,28
370,061	31,16
370,579	34,26
371,096	30,3
371,613	32,48
372,131	28,41
372,648	30,2
373,165	33,7
373,681	33,43
374,198	34,1
374,715	32,76
375,231	35,95
375,747	25,4
376,264	30,81
376,78	28,17
377,296	25,96
377,812	28,35
378,327	28,07
378,843	27,37
379,359	28,77
379,874	30,77
380,389	30,93
380,905	28,39
381,42	26,67
381,935	27,93
382,449	28,72
382,964	25,16
383,479	26,95
383,993	27,74
384,508	26,5
385,022	27,66
385,536	27,43
386,05	30,13
386,564	27
387,078	29,93
387,592	24,49
388,105	23,31
388,619	22,72
389,132	20,31
389,645	26,24
390,158	24,27
390,671	24,54
391,184	20,06
391,697	22,05
392,21	22,66
392,722	22,71
393,235	22,46
393,747	22,88
394,259	24,65
394,771	21,83
395,283	23,35
395,795	21,13
396,307	21,23
396,818	18,89
397,33	20,59
397,841	18,86
398,353	18,91
398,864	17,35
399,375	18,49
399,886	17,08
400,397	15,27
400,907	14,88
401,418	16,92
401,928	17,28
402,439	16,11
402,949	13,97
403,459	16,4
403,969	15,15
404,479	15,98
404,989	15,96
405,498	14,61
406,008	12,77
406,517	11,23
407,027	12,05
407,536	13,53
408,045	11,72
408,554	10,87
409,063	11,85
409,572	10,54
410,08	10,53
410,589	9,97
411,097	10,14
411,606	9,45
412,114	8,92
412,622	8,51
413,13	9,77
413,638	7,62
414,145	8,69
414,653	7,52
415,16	8,3
415,668	7,23
416,175	7,5
416,682	7,64
417,189	7,46
417,696	7,33
418,203	7,44
418,71	6,87
419,216	7,08
419,723	6,31
420,229	6,34
420,735	6,98
421,242	5,86
421,748	6,62
422,254	5,59
422,759	5,55
423,265	5,74
423,771	6,01
424,276	5,55
424,781	6,46
425,287	5,18
425,792	6,18
426,297	5,36
426,802	5,84
427,306	5,27
427,811	5,57
428,316	5,7
428,82	5,48
429,324	5,15
429,829	5,59
430,333	5,27
430,837	4,66
431,34	5,22
431,844	5,21
432,348	4,96
432,851	5,49
433,355	4,71
433,858	4,99
434,361	4,8
434,864	5,03
435,367	4,75
435,87	5,02
436,373	5,17
436,876	5,23
437,378	4,35
437,88	4,59
438,383	4,3
438,885	5,14
439,387	4,99
439,889	4,6
440,391	4,68
440,892	4,61
441,394	4,85
441,896	4,85
442,397	4,75
442,898	4,37
443,399	4,63
443,9	4,75
444,401	4,92
444,902	4,74
445,403	5,05
445,903	4,87
446,404	4,4
446,904	4,93
447,405	4,73
447,905	4,72
448,405	4,61
448,905	4,53
449,404	4,98
449,904	4,85
450,404	4,9
450,903	4,63
451,403	4,98
451,902	4,78
452,401	4,73
452,9	5,04
453,399	5,19
453,898	4,87
454,396	5,07
454,895	4,81
455,393	5,3
455,892	5,11
456,39	4,51
456,888	4,5
457,386	4,95
457,884	4,83
458,382	4,82
458,879	4,87
459,377	5,05
459,874	5,01
460,372	4,98
460,869	5,03
461,366	4,48
461,863	4,75
462,36	5,03
462,857	4,81
463,353	4,78
463,85	4,88
464,346	5,09
464,843	4,96
465,339	4,65
465,835	5,07
466,331	5,02
466,827	4,77
467,323	4,96
467,818	4,78
468,314	4,93
468,809	4,71
469,305	4,75
469,8	4,65
470,295	4,9
470,79	4,83
471,285	5,04
471,78	4,88
472,274	5,09
472,769	4,47
473,263	4,81
473,758	4,82
474,252	4,89
474,746	4,82
475,24	4,68
475,734	4,63
476,228	5,01
476,721	4,82
477,215	4,86
477,708	5
478,202	4,71
478,695	5,07
479,188	5,18
479,681	5,15
480,174	4,66
480,667	4,88
481,159	5,01
481,652	4,86
482,144	5
482,637	5,11
483,129	5,18
483,621	4,81
484,113	4,92
484,605	5,22
485,097	4,95
485,588	4,95
486,08	5,25
486,571	5,22
487,063	5,01
487,554	5,06
488,045	5,17
488,536	5,47
489,027	4,95
489,518	5,28
490,008	5,58
490,499	5,22
490,989	5,29
491,48	5,63
491,97	5,49
492,46	5,53
492,95	5,71
493,44	5,6
493,93	5,53
494,419	5,77
494,909	5,8
495,398	5,69
495,888	5,91
496,377	6,1
496,866	5,93
497,355	6,1
497,844	6,17
498,333	6,59
498,821	6,16
499,31	6,39
499,798	6,31
500,287	7,06
500,775	6,8
501,263	6,95
501,751	6,81
502,239	7,06
502,727	7,35
503,215	7,41
503,702	7,49
504,19	7,46
504,677	7,49
505,164	7,87
505,651	7,69
506,139	8
506,625	8,37
507,112	8,13
507,599	8,84
508,086	9,09
508,572	9,22
509,058	9,23
509,545	9,44
510,031	9,98
510,517	9,73
511,003	9,98
511,489	10,18
511,974	10,65
512,46	10,94
512,946	11,23
513,431	11,51
513,916	11,8
514,401	11,88
514,887	12,12
515,371	12,47
515,856	12,45
516,341	13,11
516,826	13,74
517,31	13,52
517,795	13,87
518,279	14,19
518,763	14,62
519,247	14,92
519,731	15,23
520,215	15,98
520,699	15,96
521,182	16,42
521,666	16,58
522,149	16,86
522,633	17,12
523,116	17,35
523,599	17,93
524,082	18,19
524,565	18,63
525,048	18,66
525,53	19,09
526,013	19,47
526,495	19,87
526,978	19,58
527,46	20,25
527,942	20,27
528,424	20,22
528,906	20,71
529,388	21,1
529,87	21,25
530,351	21,52
530,833	21,32
531,314	21,81
531,795	22,18
532,277	22,4
532,758	22,77
533,238	22,45
533,719	22,73
534,2	22,77
534,681	22,94
535,161	23,21
535,642	23,2
536,122	23,88
536,602	23,77
537,082	23,41
537,562	23,58
538,042	23,76
538,522	23,96
539,001	23,89
539,481	23,94
539,96	24,18
540,44	24,23
540,919	24
541,398	23,69
541,877	24,11
542,356	24,29
542,835	23,97
543,313	24,37
543,792	24,72
544,27	24,74
544,749	24,42
545,227	24,65
545,705	24,94
546,183	24,54
546,661	24,7
547,139	24,55
547,616	24,92
548,094	24,79
548,571	24,88
549,049	25,02
549,526	25,03
550,003	24,84
550,48	24,9
550,957	24,6
551,434	25,35
551,911	25,14
552,387	25,07
552,864	25,04
553,34	25,5
553,817	24,86
554,293	25,4
554,769	24,79
555,245	25
555,721	25
556,197	24,77
556,672	25,13
557,148	25,5
557,623	25,09
558,099	24,98
558,574	25,31
559,049	25,07
559,524	24,77
559,999	24,96
560,474	24,65
560,948	24,75
561,423	24,55
561,897	24,68
562,372	24,17
562,846	24,13
563,32	24,33
563,794	24,22
564,268	24,02
564,742	23,92
565,216	23,63
565,69	23,69
566,163	23,52
566,636	23,51
567,11	22,97
567,583	23
568,056	22,89
568,529	22,6
569,002	22,29
569,475	22,38
569,947	22,33
570,42	21,98
570,892	21,38
571,365	21,58
571,837	21,68
572,309	20,93
572,781	21,08
573,253	21,01
573,725	20,62
574,197	20,74
574,668	20,07
575,14	20,09
575,611	19,63
576,082	19,71
576,554	19,6
577,025	19,41
577,496	19,25
577,967	19,28
578,437	19,24
578,908	18,79
579,379	18,47
579,849	18,7
580,319	18,35
580,79	18,33
581,26	18,01
581,73	17,84
582,2	17,93
582,669	17,8
583,139	17,88
583,609	17,57
584,078	17,47
584,548	17,19
585,017	17,24
585,486	17,44
585,955	17,24
586,424	16,81
586,893	17,08
587,362	16,78
587,83	16,72
588,299	16,43
588,767	16,62
589,236	16,45
589,704	16,39
590,172	16,2
590,64	16,33
591,108	16,28
591,576	16,32
592,043	15,97
592,511	15,69
592,978	15,87
593,446	15,78
593,913	15,59
594,38	15,41
594,847	15,64
595,314	15,8
595,781	15,54
596,248	15,6
596,715	15,58
597,181	15,26
597,647	15,64
598,114	15,37
598,58	15,27
599,046	15,28
599,512	15,16
599,978	15,06
600,444	15,04
600,91	15,09
601,375	15,12
601,841	15,37
602,306	15,05
602,771	14,95
603,236	14,77
603,702	14,89
604,167	14,65
604,631	14,73
605,096	14,72
605,561	14,56
606,025	14,53
606,49	14,53
606,954	14,4
607,418	14,29
607,882	14,21
608,347	14,19
608,81	14,18
609,274	13,81
609,738	13,95
610,202	13,96
610,665	13,76
611,128	13,77
611,592	13,66
612,055	13,57
612,518	13,65
612,981	13,48
613,444	13,13
613,907	13,27
614,369	13,01
614,832	13,04
615,294	12,79
615,757	12,88
616,219	12,8
616,681	12,76
617,143	12,44
617,605	12,3
618,067	12,57
618,529	12,44
618,99	12,28
619,452	12,16
619,913	12,18
620,375	11,82
620,836	12,23
621,297	12,03
621,758	11,95
622,219	11,83
622,68	11,88
623,14	11,82
623,601	11,79
624,061	11,61
624,522	11,51
624,982	11,7
625,442	11,61
625,902	11,62
626,362	11,45
626,822	11,57
627,282	11,47
627,742	11,63
628,201	11,16
628,661	11,46
629,12	11,29
629,579	11,25
630,038	11,23
630,497	11,33
630,956	11,36
631,415	11,14
631,874	11,19
632,332	11,31
632,791	11,05
633,249	11,22
633,708	11,29
634,166	10,91
634,624	10,78
635,082	11,04
635,54	10,82
635,998	10,68
636,455	10,56
636,913	10,53
637,37	10,51
637,828	10,22
638,285	10,26
638,742	10,26
639,199	10,04
639,656	10,06
640,113	9,87
640,57	9,66
641,027	9,52
641,483	9,29
641,94	9,31
642,396	9,14
642,852	8,97
643,309	8,84
643,765	8,74
644,221	8,56
644,676	8,49
645,132	8,51
645,588	8,43
646,043	8,2
646,499	8,1
646,954	8,01
647,409	7,94
647,864	7,83
648,319	7,71
648,774	7,6
649,229	7,58
649,684	7,58
650,139	7,51
650,593	7,29
651,047	7,33
651,502	7,28
651,956	7,3
652,41	7,28
652,864	7,22
653,318	7,33
653,772	7,26
654,225	6,92
654,679	7,01
655,133	6,91
655,586	6,97
656,039	6,96
656,492	7
656,946	6,65
657,399	6,78
657,851	6,76
658,304	6,74
658,757	6,48
659,209	6,62
659,662	6,53
660,114	6,46
660,567	6,4
661,019	6,3
661,471	6,12
661,923	6,18
662,375	6,1
662,826	6,05
663,278	5,99
663,73	5,94
664,181	5,86
664,632	5,87
665,084	5,74
665,535	5,74
665,986	5,68
666,437	5,67
666,888	5,65
667,338	5,6
667,789	5,56
668,24	5,69
668,69	5,64
669,14	5,55
669,591	5,66
670,041	5,62
670,491	5,76
670,941	5,73
671,391	5,66
671,84	5,68
672,29	5,75
672,74	5,81
673,189	5,92
673,638	5,86
674,088	5,87
674,537	5,99
674,986	6,09
675,435	6,21
675,883	6,22
676,332	6,33
676,781	6,33
677,229	6,48
677,678	6,63
678,126	6,68
678,574	6,86
679,022	7
679,47	7,05
679,918	7,09
680,366	7,2
680,814	7,35
681,261	7,4
681,709	7,66
682,156	7,75
682,604	7,87
683,051	7,97
683,498	8,03
683,945	8,23
684,392	8,25
684,839	8,53
685,286	8,62
685,732	8,74
686,179	8,89
686,625	9,05
687,071	9,4
687,518	9,4
687,964	9,46
688,41	9,73
688,856	10,07
689,301	10,42
689,747	10,6
690,193	11,14
690,638	11,23
691,084	11,56
691,529	12,17
691,974	12,32
692,419	12,79
692,864	13,36
693,309	14,01
693,754	14,3
694,199	14,85
694,643	15,21
695,088	15,78
695,532	16,39
695,977	16,91
696,421	17,44
696,865	17,97
697,309	18,94
697,753	19,07
698,197	19,58
698,64	20,43
699,084	20,93
699,527	21,29
699,971	21,96
700,414	22,92
700,857	23,28
701,3	23,61
701,743	24,22
702,186	24,68
702,629	25,33
703,072	25,79
703,515	26,36
703,957	26,85
704,399	27,25
704,842	27,66
705,284	28,35
705,726	28,54
706,168	28,87
706,61	29,58
707,052	30,02
707,494	30,75
707,935	31,2
708,377	31,59
708,818	32,03
709,26	32,17
709,701	32,69
710,142	32,94
710,583	33,52
711,024	33,85
711,465	34,44
711,905	34,63
712,346	35,1
712,787	35,49
713,227	35,9
713,667	36,45
714,108	36,65
714,548	37,18
714,988	37,35
715,428	37,91
715,868	38,12
716,307	38,07
716,747	38,56
717,186	39,02
717,626	39,56
718,065	39,92
718,504	39,61
718,944	40,39
719,383	40,97
719,822	40,61
720,261	40,84
720,699	41,22
721,138	41,55
721,576	42,02
722,015	42,15
722,453	42,4
722,892	42,65
723,33	42,69
723,768	42,96
724,206	43,18
724,644	43,87
725,081	43,37
725,519	43,76
725,957	44,19
726,394	44,19
726,832	44,48
727,269	45,03
727,706	44,81
728,143	45,03
728,58	45,09
729,017	45,34
729,454	45,61
729,89	45,54
730,327	45,93
730,764	45,63
731,2	46,14
731,636	46,22
732,072	46,21
732,509	46,28
732,945	46,2
733,38	46,19
733,816	46,63
734,252	46,6
734,688	46,72
735,123	46,83
735,559	46,66
735,994	47,13
736,429	46,9
736,864	46,97
737,299	47,09
737,734	47,54
738,169	47,38
738,604	47,11
739,038	47,5
739,473	47,45
739,907	47,43
740,342	47,24
740,776	47,75
741,21	47,32
741,644	47,14
742,078	47,46
742,512	47,45
742,946	47,65
743,379	47,58
743,813	47,58
744,246	47,27
744,68	47,72
745,113	47,03
745,546	47,44
745,979	47,56
746,412	47,54
746,845	47,4
747,278	47,76
747,711	47,37
748,143	47,39
748,576	47,25
749,008	47,49
749,441	47,51
749,873	47,2
750,305	47,34
750,737	47,39
751,169	47,22
751,601	47,36
752,032	47,39
752,464	46,94
752,896	46,66
753,327	47,06
753,758	46,68
754,19	46,93
754,621	47,25
755,052	46,56
755,483	46,75
755,914	46,88
756,344	46,91
756,775	46,74
757,206	46,5
757,636	46,66
758,066	46,57
758,497	46,6
758,927	46,59
759,357	46,5
759,787	46,51
760,217	46,07
760,647	46,43
761,076	46,38
761,506	46,21
761,935	46,22
762,365	46,31
762,794	46,41
763,223	46,19
763,653	46,41
764,082	46,22
764,51	45,9
764,939	45,81
765,368	45,95
765,797	45,99
766,225	45,81
766,654	45,65
767,082	45,79
767,51	45,88
767,938	45,48
768,367	45,83
768,795	45,71
769,222	45,41
769,65	45,63
770,078	45,63
770,505	45,39
770,933	45,39
771,36	45,5
771,788	45,7
772,215	45,6
772,642	45,4
773,069	45,01
773,496	45,02
773,923	45,79
774,349	45,39
774,776	45,42
775,203	45,28
775,629	45,29
776,055	45,44
776,482	45,05
776,908	45
777,334	45,21
777,76	45,18
778,186	45,2
778,611	45,12
779,037	44,85
779,463	45,17
779,888	45,06
780,314	44,9
780,739	44,97
781,164	44,95
781,589	45,26
782,014	44,83
782,439	45,03
782,864	45,33
783,289	44,49
783,713	45,13
784,138	44,83
784,562	44,99
784,987	45,01
785,411	44,85
785,835	44,72
786,259	44,47
786,683	44,81
787,107	44,97
787,531	44,72
787,954	44,35
788,378	44,85
788,802	44,68
789,225	44,41
789,648	44,85
790,071	44,67
790,495	44,35
790,918	44,69
791,34	45,04
791,763	44,63
792,186	44,76
792,609	44,32
793,031	44,77
793,454	44,57
793,876	44,31
794,298	44,66
794,721	44,76
795,143	44,26
795,565	44,55
795,986	44,55
796,408	44,39
796,83	44,45
797,252	44,48
797,673	44,53
798,094	44,39
798,516	44,78
798,937	44,3
799,358	44,46
799,779	44,17
800,2	44,46
800,621	44,5
801,042	44,52
801,462	44,23
801,883	44,42
802,303	44,27
802,724	44,59
803,144	44,69
803,564	44,47
803,984	44,63
804,404	44,16
804,824	44,74
805,244	44,3
805,664	44,28
806,084	44,2
806,503	44,55
806,923	44,23
807,342	44,17
807,761	44,17
808,18	44,84
808,599	44,3
809,018	44,46
809,437	44,61
809,856	44,24
810,275	44,26
810,693	44,27
811,112	44,49
811,53	43,97
811,949	44,51
812,367	44,38
812,785	44,07
813,203	44,57
813,621	44,04
814,039	44,2
814,457	43,82
814,874	44,26
815,292	44,34
815,709	44,19
816,127	44,24
816,544	44,22
816,961	44,15
817,378	44,27
817,795	44,1
818,212	43,95
818,629	44,1
819,046	44,17
819,462	44,38
819,879	44,32
820,295	44,39
820,712	44,03
821,128	44,38
821,544	43,91
821,96	44,18
822,376	44,28
822,792	44,1
823,208	44,09
823,624	43,7
824,039	43,57
824,455	43,94
824,87	44
825,286	44,14
825,701	44,23
826,116	43,8
826,531	44,17
826,946	44,1
827,361	44,11
827,776	44,16
828,19	43,88
828,605	44,11
829,02	44,03
829,434	44,1
829,848	43,56
830,263	43,89
830,677	43,91
831,091	44,45
831,505	44,26
831,919	44,09
832,332	43,66
832,746	44,11
833,16	43,68
833,573	43,89
833,987	44,1
834,4	43,89
834,813	43,88
835,226	43,8
835,639	43,99
836,052	44,02
836,465	43,84
836,878	43,71
837,29	44,33
837,703	43,93
838,116	43,39
838,528	43,97
838,94	43,48
839,352	43,64
839,765	44,03
840,177	43,78
840,589	43,84
841	43,84
841,412	44,02
841,824	43,6
842,235	43,99
842,647	43,68
843,058	44,01
843,47	43,69
843,881	43,9
844,292	44,3
844,703	43,54
845,114	43,9
845,525	43,71
845,935	43,64
846,346	43,72
846,757	43,91
847,167	43,67
847,577	43,78
847,988	43,52
848,398	43,39
848,808	43,21
849,218	43,46
849,628	43,75
850,038	43,56
850,448	43,85
850,857	43,52
851,267	43,6
851,676	43,95
852,086	43,55
852,495	43,82
852,904	44,17
853,313	43,67
853,722	43,33
854,131	43,28
854,54	43,25
854,949	42,99
855,357	43,89
855,766	43,63
856,174	43,79
856,583	43,8
856,991	43,72
857,399	43,67
857,807	43,71
858,215	43,73
858,623	43,48
859,031	43,76
859,439	43,69
859,846	43,63
860,254	43,68
860,661	43,55
861,069	43,45
861,476	43,32
861,883	43,55
862,29	43,62
862,697	43,6
863,104	43,42
863,511	43,65
863,918	43,19
864,325	43,66
864,731	43,41
865,138	43,09
865,544	43,33
865,95	43,23
866,357	43,45
866,763	43,32
867,169	43,35
867,575	43,82
867,98	43,2
868,386	43,43
868,792	43,54
869,197	43,59
869,603	43,31
870,008	43,51
870,414	43,53
870,819	43,5
871,224	43,37
871,629	43,57
872,034	43,41
872,439	43,31
872,844	42,99
873,248	43,5
873,653	43,35
874,057	43,49
874,462	43,31
874,866	43,35
875,27	43,93
875,674	43,53
876,078	43,41
876,482	43,42
876,886	43,17
877,29	43,48
877,694	43,37
878,097	43,33
878,501	43,71
878,904	43,34
879,308	43,42
879,711	43,13
880,114	43,55
880,517	43,21
880,92	43,55
881,323	43,24
881,726	43,24
882,128	43,84
882,531	43,29
882,934	43,69
883,336	43,57
883,738	43,47
884,141	43,13
884,543	43,64
884,945	43,64
885,347	43,39
885,749	43,16
886,151	43,3
886,552	43,27
886,954	43,43
887,355	43,26
887,757	43,33
888,158	43,3
888,56	43,6
888,961	42,96
889,362	43,19
889,763	43,63
890,164	42,94
890,565	42,91
890,965	43,39
891,366	43,63
891,767	43,52
892,167	43,11
892,567	43,44
892,968	43,33
893,368	43,48
893,768	43,33
894,168	43,23
894,568	43,39
894,968	43,24
895,368	43,46
895,767	43,41
896,167	43,62
896,566	43,39
896,966	42,73
897,365	43,04
897,764	43,16
898,164	42,72
898,563	43,58
898,962	42,89
899,361	43,25
899,759	43,14
900,158	43,08
900,557	43,37
900,955	42,81
901,354	43,39
901,752	43,02
902,15	43,06
902,548	43,22
902,947	43,27
903,345	43,54
903,742	43,13
904,14	43,5
904,538	43,16
904,936	43,03
905,333	42,91
905,731	43,19
906,128	42,99
906,525	43,5
906,923	43,38
907,32	43,81
907,717	43,33
908,114	43,06
908,511	42,93
908,907	43,27
909,304	43,21
909,701	43,13
910,097	43,14
910,494	43,35
910,89	42,5
911,286	43,29
911,682	43
912,078	43,33
912,474	43,56
912,87	42,66
913,266	43,68
913,662	43,07
914,058	43,19
914,453	43,46
914,849	42,94
915,244	42,65
915,639	43,29
916,034	43,28
916,43	43,13
916,825	43,26
917,22	43,25
917,614	43,3
918,009	43,22
918,404	43,66
918,798	43,51
919,193	43,31
919,587	42,93
919,982	43,45
920,376	43,04
920,77	42,63
921,164	43,3
921,558	42,74
921,952	43,1
922,346	43,27
922,74	42,62
923,133	43,49
923,527	43,12
923,92	42,88
924,314	42,98
924,707	43,46
925,1	42,87
925,493	42,95
925,886	43,1
926,279	43,32
926,672	43,03
927,065	42,93
927,457	42,84
927,85	43
928,243	43,06
928,635	43,15
929,027	42,39
929,42	43,36
929,812	42,73
930,204	43,24
930,596	42,83
930,988	42,77
931,379	43,34
931,771	43,02
932,163	42,8
932,554	43,4
932,946	42,65
933,337	43,03
933,729	42,55
934,12	42,32
934,511	42,85
934,902	42,68
935,293	42,63
935,684	42,76
936,075	43,13
936,465	42,75
936,856	42,52
937,246	43,13
937,637	42,59
938,027	43,14
938,417	42,81
938,808	42,67
939,198	42,77
939,588	43,09
939,978	42,65
940,368	43,15
940,757	42,35
941,147	43,07
941,537	43,44
941,926	41,62
942,315	42,46
942,705	43,27
943,094	42,46
943,483	43,38
943,872	43,05
944,261	42,36
944,65	42,7
945,039	43,01
945,428	42,63
945,816	42,27
946,205	42,69
946,593	42,48
946,982	42,9
947,37	42,93
947,758	43,13
948,146	43,14
948,534	42,65
948,922	43,03
949,31	42,36
949,698	42,17
950,086	41,95
950,473	42,76
950,861	42,63
951,248	43,32
951,636	42,14
952,023	42,15
952,41	42,56
952,797	42,54
953,184	42,71
953,571	42,82
953,958	42,65
954,345	42,39
954,731	42,81
955,118	42,94
955,505	42,92
955,891	41,95
956,277	41,72
956,664	42,61
957,05	42,36
957,436	42,37
957,822	41,98
958,208	42,16
958,594	41,96
958,979	42,11
959,365	42,75
959,751	42,24
960,136	41,91
960,522	42,13
960,907	41,48
961,292	42,04
961,677	42,83
962,062	42,04
962,447	42,78
962,832	41,84
963,217	41,86
963,602	41,99
963,986	42,46
964,371	42,35
964,756	42,34
965,14	42,78
965,524	41,55
965,908	42,26
966,293	41,7
966,677	41,66
967,061	42,87
967,445	41,62
967,828	42,04
968,212	41,59
968,596	41,95
968,979	41,49
969,363	42,58
969,746	41,82
970,129	42,55
970,513	42,54
970,896	42,08
971,279	41,75
971,662	42,5
972,045	42,43
972,428	42,31
972,81	42,44
973,193	41,61
973,575	41,42
973,958	42,21
974,34	42,17
974,723	41,6
975,105	42,01
975,487	42,05
975,869	41,72
976,251	42,03
976,633	42,05
977,015	42,17
977,396	42,31
977,778	42,08
978,16	42,06
978,541	41,68
978,922	42,57
979,304	42,08
979,685	41,88
980,066	42,51
980,447	42,1
980,828	41,95
981,209	42,2
981,59	41,65
981,97	41,6
982,351	41,75
982,732	42,61
983,112	42,53
983,493	41,66
983,873	41,88
984,253	41,72
984,633	42,14
985,013	41,86
985,393	41,82
985,773	42,04
986,153	41,98
986,533	41,71
986,912	42,23
987,292	42,48
987,671	42,06
988,051	42,99
988,43	41,92
988,809	41,68
989,188	42,01
989,567	41,24
989,946	41,64
990,325	41,79
990,704	42,42
991,083	41,88
991,461	42,18
991,84	42,11
992,218	41,93
992,597	42,55
992,975	41,58
993,353	42,6
993,732	41,38
994,11	41,94
994,488	41,88
994,866	42,47
995,243	41,62
995,621	41,43
995,999	42,2
996,376	42,39
996,754	42,5
997,131	42,16
997,509	42,79
997,886	42,23
998,263	42,28
998,64	42,03
999,017	41,76
999,394	41,59
999,771	42,36
1000,148	41,78
1000,524	42,43
1000,901	43,06
1001,277	42,88
1001,654	42,53
1002,03	42,65
1002,406	42,26
1002,783	42,83
1003,159	42,06
1003,535	42,38
1003,911	42,05
1004,286	41,44
1004,662	42,1
1005,038	42,37
1005,414	43,22
1005,789	42,01
1006,164	42,93
1006,54	42,6
1006,915	42,71
1007,29	41,9
1007,665	42,97
1008,04	42,59
1008,415	42,35
1008,79	43,13
1009,165	42,3
1009,54	42,35
1009,914	42,3
1010,289	42,32
1010,663	42,49
1011,038	41,9
1011,412	43,36
1011,786	42,51
1012,16	42,84
1012,535	41,92
1012,909	41,91
1013,282	43,06
1013,656	42,54
1014,03	42,68
1014,404	42,29
1014,777	42,38
1015,151	43,72
1015,524	43,18
1015,897	43,02
1016,271	42,17
1016,644	42,34
1017,017	42,92
1017,39	42,02
1017,763	42,77
1018,136	42,66
1018,508	42,78
1018,881	41,96
1019,254	42,29
1019,626	42,18
1019,999	42,85
1020,371	42,94
1020,743	42,4
1021,116	42
1021,488	42,78
1021,86	42,29
1022,232	42,29
1022,604	42,14
1022,975	42,14
1023,347	43,07
1023,719	42,8
1024,09	42,36
1024,462	43,13
1024,833	43,26
1025,204	43,24
1025,576	43,16
1025,947	43,18
1026,318	42,71
1026,689	43,12
1027,06	43,17
1027,431	42,9
1027,801	42,61
1028,172	42,84
1028,543	43,16
1028,913	42,9
1029,284	43,11
1029,654	42,43
1030,024	42,42
1030,394	42,79
1030,764	43,49
1031,135	42,37
1031,504	42,99
1031,874	42,58
1032,244	43,6
1032,614	43,18
1032,983	43,43
1033,353	43,18
1033,722	42,95
1034,092	43,55
1034,461	42,86
1034,83	41,8
1035,2	43,2
1035,569	42,35
1035,938	43,52
1036,307	42,28
1036,675	43,59
1037,044	42,29
1037,413	42,99
1037,781	42,4
1038,15	42,81
1038,518	42,92
1038,887	43,56
1039,255	43,08
1039,623	42,86
1039,991	44,07
1040,359	42,25
1040,727	42,13
1041,095	42,89
1041,463	43,32
1041,831	42,24
1042,198	42,54
1042,566	43,62
1042,933	44,05
1043,301	42,39
1043,668	43,41
1044,035	42,22
1044,402	43,28
1044,77	42,54
1045,137	43,89
1045,503	44,34
1045,87	41,39
1046,237	42,83
1046,604	42,68
1046,97	43,72
1047,337	42,89
1047,703	43,54
1048,07	44,84
1048,436	42,03
1048,802	42,94
1049,168	44,05
1049,534	42,91
1049,9	43,84
1050,266	43,34
1050,632	43,36
1050,998	42,46
1051,364	42,42
1051,729	44
1052,095	43,26
1052,46	43,7
1052,825	43,64
1053,191	43,78
1053,556	43,08
1053,921	43,14
1054,286	43,34
1054,651	42,9
1055,016	42,89
1055,381	42,83
1055,745	43,64
1056,11	42,27
1056,475	43,07
1056,839	44,16
1057,203	41,8
1057,568	43,11
1057,932	43,38
1058,296	43,32
1058,66	42,15
1059,024	43,94
1059,388	43,36
1059,752	43,89
1060,116	42,74
1060,48	42,22
1060,843	42,55
1061,207	43,64
1061,57	43,48
1061,934	43,27
1062,297	41,79
1062,66	44,59
1063,023	44,57
1063,386	43,93
1063,749	42,45
1064,112	43,25
1064,475	44,23
1064,838	44,29
1065,201	43,64
1065,563	43,54
1065,926	42,65
1066,288	44,08
1066,651	44,11
1067,013	44,62
1067,375	42,88
1067,737	43,82
1068,099	43,09
1068,461	43,66
1068,823	42,82
1069,185	42,18
1069,547	43,95
1069,909	43,8
1070,27	41,34
1070,632	44,14
1070,993	44,52
1071,355	44,31
1071,716	43,53
1072,077	42,63
1072,438	43,25
1072,799	42,79
1073,16	44,98
1073,521	42,18
1073,882	44,54
1074,243	43,05
1074,603	42,45
1074,964	44,32
1075,325	43,63
1075,685	44,61
1076,045	43,9
1076,406	43,12
1076,766	43,66
1077,126	44,52
1077,486	43,97
1077,846	43,74
1078,206	44,98
1078,566	45,24
1078,925	43,29
1079,285	42,93
1079,645	43,78
1080,004	43,56
1080,364	43,83
1080,723	42,54
1081,082	44,14
1081,442	42,64
1081,801	43,32
1082,16	41,85
1082,519	45,3
1082,878	43,57
1083,237	43,89
1083,595	44,92
1083,954	43,05
1084,313	44,74
1084,671	43,56
1085,03	44,02
1085,388	43,77
1085,746	46,1
1086,104	42,4
1086,463	43,01
1086,821	44,03
1087,179	44,2
1087,537	43,27
1087,894	44,07
1088,252	43,17
1088,61	43,71
1088,967	43,97
1089,325	46,12
1089,682	45,4
1090,04	45,98
1090,397	44,64
1090,754	44,9
1091,111	43,45
1091,469	45,49
1091,826	42,01
1092,182	42,88
1092,539	43,76
1092,896	43,02
1093,253	41,62
1093,609	41,64
1093,966	42,92
1094,322	42,31
1094,679	45,34
1095,035	42,8
1095,391	42,28
1095,748	45,62
1096,104	43,02
1096,46	43,35
1096,816	46,07
1097,171	43,57
1097,527	44,44
1097,883	43,38
1098,239	46,67
1098,594	46,55
1098,95	42,16
1099,305	45,07
1099,66	45,69
1100,016	43,24
1100,371	46,69
1100,726	44,74
1101,081	43,91
1101,436	43,4
1101,791	46,82
1102,146	44,08
1102,5	42,13
1102,855	41,55
1103,21	45,49
1103,564	44,04
1103,918	42,31
1104,273	43,37
1104,627	48,94
1104,981	44,54
1105,335	47,95
1105,69	45,23
1106,043	45,8
1106,397	44,84
1106,751	45,36
1107,105	46,73
1107,459	45,75
1107,812	47,39
1108,166	45,35
1108,519	49,26
1108,873	43,36
1109,226	48,44
1109,579	44,94
1109,932	47,66
1110,285	45,2
1110,638	46,92
1110,991	43,04
1111,344	45,14
1111,697	43,79
1112,05	42,26
1112,402	45,77
1112,755	42,98
1113,107	46,48
1113,46	43,21
1113,812	48,64
1114,164	48,76
1114,517	47,01
1114,869	85
1115,221	77,05
1115,573	95,38
1115,924	83,1
