Data from D1__Relative__6__00033.txt Node

Date: Thu Feb 01 16:18:51 CET 2024
User: diatiterra
Spectrometer: HDX00911
Trigger mode: 0
Integration Time (sec): 6,000000E-3
Scans to average: 2
Nonlinearity correction enabled: false
Boxcar width: 0
Storing dark spectrum: false
XAxis mode: Wavelengths
Number of Pixels in Spectrum: 2068
>>>>>Begin Spectral Data<<<<<
194,468	144,62
195,025	84,72
195,581	116,67
196,138	89,71
196,694	110,99
197,251	94,44
197,807	77,33
198,363	69,82
198,919	62,5
199,474	70,06
200,03	77,27
200,586	75,32
201,141	67,53
201,696	69,36
202,251	59,67
202,806	72,99
203,361	66,67
203,916	75,14
204,471	66,3
205,025	69,19
205,58	69,94
206,134	70,74
206,688	59,69
207,242	59,88
207,796	55,56
208,35	63,37
208,904	63,28
209,457	83,53
210,011	73,01
210,564	73,12
211,117	86,93
211,67	60,67
212,223	70,1
212,776	65,24
213,329	66,84
213,881	57,51
214,434	65
214,986	77,11
215,538	66,3
216,09	74,48
216,642	72,89
217,194	71,76
217,746	70,86
218,297	72,22
218,849	73,84
219,4	74,44
219,951	73,71
220,502	65,09
221,053	67,86
221,604	71,01
222,155	71,12
222,705	70,76
223,256	70,79
223,806	69,71
224,356	62,89
224,906	66,06
225,456	62,03
226,006	72,13
226,556	71,89
227,106	69,51
227,655	57,59
228,204	63,84
228,754	81,61
229,303	70,59
229,852	71,11
230,401	66,05
230,949	78,53
231,498	72,87
232,047	61,11
232,595	74,14
233,143	69,47
233,691	69,23
234,239	54,64
234,787	76,16
235,335	73,84
235,883	64,21
236,43	80,65
236,978	64,89
237,525	57,29
238,072	60
238,619	71,95
239,166	67,16
239,713	66,48
240,26	79,53
240,806	69,33
241,353	78,49
241,899	66,48
242,445	71,6
242,991	59,46
243,537	72,55
244,083	78,57
244,629	66
245,174	66,67
245,72	67,6
246,265	65,45
246,81	69,32
247,355	71,98
247,9	62,94
248,445	75,8
248,99	70
249,534	64,61
250,079	74,1
250,623	61,96
251,168	64,37
251,712	65,88
252,256	68,32
252,8	67,8
253,343	79,67
253,887	77,05
254,43	77,84
254,974	67,04
255,517	70,06
256,06	81,25
256,603	74,72
257,146	65,75
257,689	66,67
258,232	62,43
258,774	72,02
259,317	66,48
259,859	62,3
260,401	64,61
260,943	75,16
261,485	64,32
262,027	67,72
262,569	68,21
263,11	57,63
263,652	62,64
264,193	69,89
264,734	59,65
265,275	56,25
265,816	63,78
266,357	70,37
266,898	58,59
267,438	62,03
267,979	66,48
268,519	72,02
269,059	70,48
269,6	58,47
270,14	61,73
270,68	69,18
271,219	59,77
271,759	76,92
272,298	62,7
272,838	70,76
273,377	65,36
273,916	73,83
274,455	66,15
274,994	59,44
275,533	64,67
276,072	70,06
276,61	67,46
277,149	64,71
277,687	66,87
278,225	65,29
278,763	74,57
279,301	67,02
279,839	78,72
280,377	63,98
280,914	58,76
281,452	77,09
281,989	72,35
282,526	81,65
283,064	72,5
283,601	58,99
284,137	80,37
284,674	75,84
285,211	67,74
285,747	65,83
286,284	58,82
286,82	62,5
287,356	63,92
287,892	70,17
288,428	60,92
288,964	72,58
289,5	70,52
290,035	77,84
290,571	66,67
291,106	60,11
291,641	71,51
292,176	63,98
292,711	55,81
293,246	73,91
293,781	67,4
294,315	62,76
294,85	53,55
295,384	68,21
295,918	59,04
296,453	56,76
296,987	58,47
297,52	68,48
298,054	65,52
298,588	64,02
299,121	63,13
299,655	65,29
300,188	74
300,721	67,7
301,254	63,49
301,787	66,13
302,32	54,4
302,853	63,69
303,385	64,13
303,918	73,71
304,45	56,63
304,982	62,15
305,514	62,77
306,046	60,87
306,578	69,52
307,11	71,27
307,641	70,33
308,173	73,03
308,704	67,61
309,236	56,35
309,767	61,05
310,298	64,15
310,829	60
311,359	62,32
311,89	66,67
312,421	68,11
312,951	69,71
313,481	59,41
314,012	60,42
314,542	56,91
315,072	70,72
315,601	62,99
316,131	68,62
316,661	73,3
317,19	60,12
317,72	56,02
318,249	57,78
318,778	67,35
319,307	64,58
319,836	73,45
320,365	56,61
320,893	62,69
321,422	73,81
321,95	65,1
322,479	84,85
323,007	67,42
323,535	71,68
324,063	70,62
324,591	66,67
325,118	66,13
325,646	59,57
326,173	72,68
326,701	51,28
327,228	66,49
327,755	71,57
328,282	70,39
328,809	72,35
329,336	59,7
329,862	69,71
330,389	52,58
330,915	64,77
331,441	76,61
331,968	78,65
332,494	71,43
333,02	64,25
333,545	57,14
334,071	57,44
334,597	58,99
335,122	64,89
335,648	62,5
336,173	55,14
336,698	65,96
337,223	56,68
337,748	59,2
338,272	54,26
338,797	66,12
339,322	62,7
339,846	61,83
340,37	57,92
340,894	59,2
341,419	67,82
341,942	52,38
342,466	69,43
342,99	68,06
343,514	60,29
344,037	61,7
344,56	57,89
345,084	65,17
345,607	54,85
346,13	61,03
346,653	63,55
347,175	56,94
347,698	54,77
348,221	65,26
348,743	55,46
349,265	57,64
349,787	55,12
350,309	54,66
350,831	55,65
351,353	57,35
351,875	59,11
352,397	50,86
352,918	52,92
353,439	54,01
353,961	48,03
354,482	58,3
355,003	53,5
355,524	51,03
356,044	60,58
356,565	47,56
357,086	52,81
357,606	45,96
358,126	50,19
358,646	50,56
359,167	51,3
359,687	49,44
360,206	49,26
360,726	47,47
361,246	51,7
361,765	53,26
362,285	60,97
362,804	55,04
363,323	50,71
363,842	47,54
364,361	50,73
364,88	47,9
365,398	48,07
365,917	44,75
366,435	50,33
366,954	51,14
367,472	52,53
367,99	47,73
368,508	50,67
369,026	52,24
369,544	50
370,061	47,77
370,579	50,93
371,096	46,56
371,613	46,72
372,131	52,17
372,648	46,72
373,165	47,67
373,681	49,4
374,198	51,58
374,715	49,86
375,231	42,78
375,747	51,85
376,264	49,09
376,78	48,48
377,296	42,55
377,812	48,1
378,327	42,86
378,843	47,83
379,359	47,64
379,874	50,37
380,389	45,15
380,905	41,29
381,42	44,22
381,935	49,47
382,449	42,77
382,964	37,21
383,479	41,56
383,993	42,65
384,508	41,92
385,022	44,1
385,536	41,24
386,05	42,94
386,564	40,67
387,078	41,4
387,592	40,41
388,105	40,5
388,619	37,12
389,132	38,59
389,645	37,76
390,158	39,62
390,671	39,94
391,184	37,73
391,697	39,19
392,21	36,68
392,722	35,59
393,235	33,55
393,747	36,21
394,259	38,59
394,771	34,24
395,283	36,68
395,795	34,54
396,307	34,3
396,818	34,45
397,33	36,04
397,841	35,16
398,353	30,55
398,864	32,65
399,375	29,96
399,886	30,36
400,397	31,28
400,907	29,16
401,418	27
401,928	26,69
402,439	27,07
402,949	26,84
403,459	25,21
403,969	26,04
404,479	26,04
404,989	24,61
405,498	22,66
406,008	22,65
406,517	22,61
407,027	22,64
407,536	21,26
408,045	21,79
408,554	20,15
409,063	19,06
409,572	18,1
410,08	19,66
410,589	17,9
411,097	16,4
411,606	17,74
412,114	16,2
412,622	15,64
413,13	15,18
413,638	13,77
414,145	13,12
414,653	13,96
415,16	13,86
415,668	13,09
416,175	12,98
416,682	13,59
417,189	12,09
417,696	11,68
418,203	12,36
418,71	11,73
419,216	11,47
419,723	11,5
420,229	10,66
420,735	12,12
421,242	10,52
421,748	11,17
422,254	11,57
422,759	10,46
423,265	10,38
423,771	10,48
424,276	10,71
424,781	10,87
425,287	9,41
425,792	10,3
426,297	10,32
426,802	10,28
427,306	9,72
427,811	9,24
428,316	9,2
428,82	9,73
429,324	9,81
429,829	9,31
430,333	9,8
430,837	9,42
431,34	9,45
431,844	9,3
432,348	9,5
432,851	9,44
433,355	8,61
433,858	9,83
434,361	9,47
434,864	8,81
435,367	8,46
435,87	8,77
436,373	9,27
436,876	9,02
437,378	9,06
437,88	8,44
438,383	8,82
438,885	9,09
439,387	9,27
439,889	8,68
440,391	8,59
440,892	8,92
441,394	9,15
441,896	8,61
442,397	8,89
442,898	8,62
443,399	8,78
443,9	9,36
444,401	8,95
444,902	9,33
445,403	9,04
445,903	8,91
446,404	9,09
446,904	9,3
447,405	8,97
447,905	8,88
448,405	8,91
448,905	8,45
449,404	9,04
449,904	9,7
450,404	9,56
450,903	9,09
451,403	9,17
451,902	9,73
452,401	9,26
452,9	9,57
453,399	9,61
453,898	9,53
454,396	9,85
454,895	9,17
455,393	9,61
455,892	10,41
456,39	9,81
456,888	9,57
457,386	9,85
457,884	9,88
458,382	9,67
458,879	9,57
459,377	10,02
459,874	9,94
460,372	9,8
460,869	9,75
461,366	9,57
461,863	9,65
462,36	10,25
462,857	9,86
463,353	9,61
463,85	9,74
464,346	9,66
464,843	9,88
465,339	9,29
465,835	9,98
466,331	9,94
466,827	9,14
467,323	9,65
467,818	10
468,314	9,58
468,809	9,26
469,305	9,81
469,8	9,61
470,295	9,56
470,79	9,98
471,285	9,63
471,78	9,68
472,274	9,58
472,769	9,2
473,263	9,88
473,758	9,43
474,252	9,69
474,746	9,95
475,24	9,57
475,734	9,33
476,228	9,53
476,721	9,5
477,215	9,62
477,708	9,66
478,202	9,85
478,695	9,67
479,188	10,12
479,681	9,73
480,174	9,7
480,667	10,02
481,159	10,06
481,652	10,03
482,144	10,13
482,637	10,22
483,129	9,92
483,621	10,01
484,113	9,85
484,605	10,45
485,097	10,31
485,588	10,26
486,08	10,48
486,571	10,35
487,063	10,13
487,554	10,15
488,045	10,41
488,536	10,36
489,027	10,32
489,518	10,48
490,008	10,47
490,499	10,7
490,989	10,41
491,48	10,99
491,97	10,97
492,46	11,02
492,95	10,67
493,44	11,1
493,93	11,07
494,419	11,22
494,909	11,61
495,398	11,5
495,888	11,35
496,377	11,74
496,866	11,86
497,355	11,77
497,844	11,97
498,333	12,32
498,821	12,13
499,31	12,46
499,798	12,38
500,287	12,45
500,775	12,85
501,263	12,7
501,751	13,02
502,239	13,6
502,727	13,18
503,215	13,62
503,702	13,73
504,19	13,58
504,677	14,12
505,164	14,34
505,651	14,7
506,139	14,81
506,625	15,09
507,112	14,74
507,599	15,29
508,086	15,8
508,572	15,63
509,058	16,41
509,545	16,43
510,031	16,97
510,517	17,02
511,003	17,03
511,489	17,52
511,974	18,05
512,46	18,21
512,946	18,72
513,431	19,09
513,916	19,19
514,401	19,1
514,887	19,67
515,371	19,81
515,856	20,14
516,341	20,48
516,826	21,32
517,31	21,32
517,795	21,73
518,279	22,4
518,763	22,18
519,247	23,47
519,731	23,2
520,215	23,73
520,699	23,67
521,182	24,27
521,666	24,83
522,149	25,1
522,633	24,95
523,116	25,57
523,599	25,63
524,082	26,63
524,565	27,24
525,048	27,08
525,53	27,45
526,013	27,77
526,495	28,28
526,978	27,84
527,46	28,54
527,942	28,91
528,424	29,15
528,906	29,02
529,388	29,58
529,87	30,09
530,351	30,32
530,833	30,27
531,314	30,28
531,795	30,84
532,277	31,01
532,758	31,37
533,238	30,45
533,719	31,7
534,2	31,6
534,681	31,23
535,161	31,92
535,642	31,87
536,122	31,81
536,602	32,41
537,082	32,5
537,562	32,19
538,042	32,39
538,522	32,69
539,001	32,83
539,481	32,04
539,96	33,19
540,44	32,68
540,919	32,3
541,398	32,85
541,877	32,86
542,356	33,2
542,835	33,08
543,313	33
543,792	33,05
544,27	33,92
544,749	33,22
545,227	33,24
545,705	33,88
546,183	33,07
546,661	33,28
547,139	33,01
547,616	33,23
548,094	33,62
548,571	33,86
549,049	33,78
549,526	33,87
550,003	33,96
550,48	33,86
550,957	33,45
551,434	33,25
551,911	33,9
552,387	34
552,864	33,71
553,34	33,91
553,817	33,81
554,293	33,99
554,769	34,16
555,245	34,01
555,721	33,91
556,197	33,84
556,672	34,57
557,148	33,99
557,623	34,17
558,099	34,14
558,574	33,71
559,049	33,83
559,524	33,75
559,999	33,61
560,474	33,8
560,948	33,65
561,423	33,38
561,897	33,83
562,372	33,5
562,846	33,47
563,32	32,87
563,794	33,47
564,268	32,88
564,742	32,82
565,216	32,88
565,69	32,53
566,163	32,29
566,636	32,83
567,11	32,02
567,583	31,79
568,056	31,8
568,529	31,46
569,002	31,19
569,475	31,21
569,947	31,63
570,42	31,19
570,892	31,01
571,365	31,02
571,837	30,04
572,309	29,7
572,781	30,04
573,253	29,75
573,725	29,75
574,197	29,27
574,668	29,36
575,14	29,09
575,611	29,01
576,082	28,96
576,554	28,74
577,025	28,33
577,496	28,33
577,967	28,32
578,437	27,99
578,908	28,14
579,379	27,71
579,849	27,63
580,319	27,48
580,79	27,51
581,26	26,98
581,73	27,28
582,2	27,09
582,669	27,18
583,139	26,8
583,609	26,66
584,078	26,33
584,548	26,41
585,017	26,35
585,486	25,81
585,955	26,38
586,424	25,67
586,893	25,96
587,362	25,55
587,83	25,84
588,299	25,49
588,767	25,15
589,236	25,51
589,704	25,18
590,172	25,2
590,64	24,93
591,108	24,78
591,576	25,32
592,043	24,72
592,511	24,66
592,978	24,98
593,446	24,6
593,913	24,45
594,38	24,86
594,847	24,42
595,314	24,49
595,781	24,19
596,248	24,29
596,715	24,18
597,181	24,16
597,647	24,08
598,114	23,94
598,58	24,21
599,046	23,67
599,512	23,97
599,978	23,7
600,444	24,14
600,91	23,69
601,375	23,8
601,841	23,54
602,306	23,76
602,771	23,44
603,236	23,45
603,702	23,62
604,167	23,77
604,631	23,56
605,096	23,07
605,561	23,33
606,025	23,14
606,49	23,2
606,954	23
607,418	23,19
607,882	23,03
608,347	22,78
608,81	22,92
609,274	22,56
609,738	22,42
610,202	22,83
610,665	22,72
611,128	22,03
611,592	22,27
612,055	22,04
612,518	22,27
612,981	21,96
613,444	21,72
613,907	21,88
614,369	21,31
614,832	21,36
615,294	21,38
615,757	21,32
616,219	21,15
616,681	21,08
617,143	20,99
617,605	21,03
618,067	21
618,529	20,8
618,99	20,53
619,452	20,7
619,913	20,69
620,375	20,29
620,836	20,69
621,297	20,27
621,758	20,08
622,219	20,18
622,68	20,32
623,14	20,32
623,601	19,84
624,061	19,95
624,522	19,91
624,982	19,98
625,442	19,91
625,902	19,89
626,362	19,74
626,822	19,91
627,282	19,94
627,742	19,83
628,201	19,63
628,661	19,67
629,12	19,65
629,579	19,44
630,038	19,44
630,497	19,28
630,956	19,45
631,415	19,33
631,874	19,28
632,332	19,26
632,791	19,23
633,249	19,18
633,708	19,34
634,166	19,19
634,624	18,67
635,082	18,92
635,54	18,57
635,998	18,44
636,455	18,45
636,913	18,21
637,37	18,09
637,828	17,89
638,285	17,97
638,742	17,86
639,199	17,5
639,656	17,35
640,113	17,3
640,57	17,05
641,027	16,75
641,483	16,47
641,94	16,83
642,396	16,46
642,852	16,51
643,309	16,02
643,765	15,95
644,221	15,61
644,676	15,54
645,132	15,45
645,588	15,24
646,043	15,17
646,499	14,9
646,954	14,9
647,409	14,66
647,864	14,7
648,319	14,64
648,774	14,44
649,229	14,23
649,684	14,07
650,139	14,11
650,593	14,03
651,047	13,95
651,502	13,99
651,956	13,84
652,41	13,93
652,864	13,71
653,318	13,73
653,772	13,6
654,225	13,44
654,679	13,62
655,133	13,54
655,586	13,3
656,039	13,29
656,492	13,15
656,946	13,1
657,399	13,25
657,851	13,18
658,304	13,05
658,757	13,01
659,209	12,79
659,662	12,74
660,114	12,63
660,567	12,33
661,019	12,43
661,471	12,26
661,923	12,26
662,375	12,15
662,826	11,91
663,278	11,81
663,73	11,58
664,181	11,72
664,632	11,66
665,084	11,54
665,535	11,37
665,986	11,26
666,437	11,24
666,888	10,93
667,338	10,95
667,789	11,03
668,24	10,79
668,69	10,84
669,14	10,51
669,591	11,01
670,041	10,76
670,491	10,63
670,941	10,75
671,391	10,82
671,84	10,68
672,29	10,82
672,74	10,83
673,189	10,67
673,638	10,73
674,088	10,79
674,537	10,9
674,986	10,89
675,435	11,04
675,883	10,87
676,332	11,02
676,781	11,1
677,229	11,17
677,678	11,2
678,126	11,39
678,574	11,44
679,022	11,63
679,47	11,64
679,918	11,9
680,366	11,95
680,814	12,06
681,261	12,09
681,709	12,3
682,156	12,37
682,604	12,7
683,051	12,87
683,498	12,9
683,945	13,24
684,392	13,21
684,839	13,55
685,286	13,63
685,732	14
686,179	14,35
686,625	14,75
687,071	15,06
687,518	15,06
687,964	15,49
688,41	16,06
688,856	16,18
689,301	16,7
689,747	17
690,193	17,5
690,638	17,98
691,084	18,48
691,529	19,02
691,974	19,69
692,419	20
692,864	20,71
693,309	20,88
693,754	21,44
694,199	22,38
694,643	23,03
695,088	23,39
695,532	24,08
695,977	24,67
696,421	25,35
696,865	25,59
697,309	26,59
697,753	27,1
698,197	27,65
698,64	28,36
699,084	28,83
699,527	29,41
699,971	29,72
700,414	30,58
700,857	31,23
701,3	31,7
701,743	32,07
702,186	32,48
702,629	33,14
703,072	33,67
703,515	34,39
703,957	34,53
704,399	34,95
704,842	35,42
705,284	35,68
705,726	36,54
706,168	36,86
706,61	37,13
707,052	37,68
707,494	38,32
707,935	38,81
708,377	39,11
708,818	39,37
709,26	39,65
709,701	40,06
710,142	40,37
710,583	40,67
711,024	41,07
711,465	41,58
711,905	41,71
712,346	41,98
712,787	42,62
713,227	43,17
713,667	43,09
714,108	43,46
714,548	44,09
714,988	44,17
715,428	44,3
715,868	44,74
716,307	44,73
716,747	45,14
717,186	45,33
717,626	46,22
718,065	46,16
718,504	46,2
718,944	47,03
719,383	46,44
719,822	46,83
720,261	46,93
720,699	47,7
721,138	47,52
721,576	48
722,015	47,94
722,453	48,08
722,892	48,12
723,33	48,21
723,768	48,76
724,206	48,91
724,644	49,02
725,081	49,34
725,519	49,32
725,957	49,51
726,394	49,34
726,832	50,03
727,269	50,13
727,706	49,53
728,143	50,5
728,58	50,28
729,017	50,68
729,454	50,35
729,89	50,4
730,327	50,84
730,764	50,45
731,2	50,77
731,636	50,91
732,072	51,15
732,509	51,18
732,945	51,03
733,38	51,16
733,816	51,38
734,252	51,56
734,688	51,48
735,123	51,78
735,559	51,36
735,994	51,64
736,429	51,88
736,864	51,77
737,299	51,67
737,734	52,03
738,169	51,91
738,604	52,14
739,038	51,86
739,473	52,24
739,907	51,97
740,342	51,91
740,776	51,96
741,21	51,84
741,644	52,07
742,078	51,83
742,512	51,59
742,946	51,9
743,379	51,8
743,813	51,53
744,246	51,69
744,68	51,95
745,113	51,9
745,546	52,17
745,979	51,54
746,412	52,23
746,845	51,57
747,278	52,07
747,711	51,59
748,143	51,53
748,576	51,33
749,008	51,6
749,441	51,6
749,873	51,15
750,305	51,74
750,737	51,75
751,169	51,15
751,601	51,51
752,032	51,4
752,464	50,59
752,896	50,89
753,327	51,16
753,758	51,01
754,19	50,98
754,621	51,23
755,052	50,45
755,483	51,15
755,914	50,7
756,344	51,18
756,775	50,92
757,206	50,55
757,636	50,78
758,066	50,42
758,497	50,87
758,927	50,65
759,357	50,54
759,787	50,71
760,217	50,64
760,647	50,55
761,076	50,27
761,506	50,42
761,935	50,49
762,365	50,56
762,794	50,66
763,223	50,5
763,653	50,05
764,082	50,26
764,51	49,95
764,939	49,8
765,368	50,38
765,797	50,05
766,225	50,13
766,654	49,84
767,082	49,88
767,51	49,91
767,938	49,7
768,367	49,84
768,795	49,82
769,222	49,75
769,65	49,71
770,078	49,85
770,505	49,56
770,933	49,73
771,36	49,42
771,788	49,79
772,215	49,78
772,642	49,47
773,069	49,65
773,496	49,52
773,923	49,57
774,349	49,22
774,776	49,56
775,203	49,54
775,629	49,58
776,055	49,3
776,482	48,88
776,908	49,16
777,334	49,4
777,76	49,56
778,186	49,43
778,611	49,4
779,037	49,53
779,463	49,42
779,888	49,12
780,314	49,03
780,739	49,1
781,164	49,17
781,589	49,22
782,014	48,85
782,439	49,05
782,864	49,33
783,289	48,83
783,713	49,1
784,138	48,72
784,562	49,06
784,987	49,22
785,411	49,47
785,835	48,99
786,259	48,57
786,683	48,84
787,107	48,88
787,531	48,96
787,954	48,74
788,378	48,82
788,802	48,89
789,225	48,8
789,648	48,82
790,071	48,73
790,495	48,74
790,918	48,96
791,34	48,67
791,763	48,7
792,186	48,95
792,609	48,71
793,031	48,67
793,454	48,93
793,876	48,7
794,298	48,95
794,721	48,8
795,143	48,59
795,565	48,58
795,986	48,61
796,408	48,62
796,83	48,45
797,252	48,8
797,673	48,6
798,094	48,73
798,516	48,92
798,937	48,53
799,358	48,71
799,779	48,49
800,2	48,53
800,621	48,55
801,042	48,93
801,462	48,01
801,883	48,62
802,303	48,58
802,724	48,31
803,144	48,44
803,564	48,31
803,984	48,92
804,404	48,41
804,824	48,57
805,244	48,48
805,664	48,26
806,084	48,51
806,503	48,28
806,923	48,46
807,342	48,57
807,761	48,54
808,18	48,66
808,599	48,62
809,018	48,88
809,437	48,7
809,856	48,18
810,275	48,6
810,693	48,17
811,112	48,27
811,53	48,32
811,949	48,58
812,367	48,53
812,785	48,07
813,203	48,16
813,621	48,48
814,039	47,97
814,457	48,06
814,874	48,37
815,292	48,17
815,709	48,23
816,127	48,35
816,544	48,13
816,961	48,39
817,378	48,03
817,795	48,44
818,212	47,99
818,629	48,09
819,046	48,58
819,462	47,78
819,879	48,64
820,295	48,28
820,712	47,99
821,128	48,24
821,544	48,06
821,96	48,08
822,376	48,46
822,792	48,33
823,208	48,13
823,624	48,12
824,039	47,95
824,455	48,2
824,87	47,93
825,286	48,25
825,701	48,25
826,116	47,87
826,531	48,24
826,946	48,01
827,361	48,02
827,776	48,05
828,19	47,87
828,605	47,74
829,02	48,39
829,434	47,82
829,848	47,87
830,263	47,56
830,677	48,32
831,091	48,49
831,505	48,23
831,919	47,64
832,332	47,89
832,746	47,93
833,16	47,57
833,573	47,88
833,987	47,86
834,4	48,01
834,813	48,03
835,226	47,85
835,639	47,88
836,052	48,12
836,465	48,05
836,878	47,92
837,29	48,07
837,703	47,65
838,116	47,81
838,528	48,1
838,94	47,51
839,352	47,98
839,765	47,76
840,177	48,33
840,589	47,85
841	47,97
841,412	47,8
841,824	47,81
842,235	47,7
842,647	48,07
843,058	47,9
843,47	47,62
843,881	48,22
844,292	48,26
844,703	47,92
845,114	47,77
845,525	47,75
845,935	47,61
846,346	48,12
846,757	47,68
847,167	47,83
847,577	47,8
847,988	47,68
848,398	47,67
848,808	47,9
849,218	47,47
849,628	47,66
850,038	47,46
850,448	47,76
850,857	47,21
851,267	47,81
851,676	47,91
852,086	47,78
852,495	47,76
852,904	48,17
853,313	47,66
853,722	47,45
854,131	47,78
854,54	47,65
854,949	47,26
855,357	47,7
855,766	47,6
856,174	47,85
856,583	47,69
856,991	47,4
857,399	47,33
857,807	48,11
858,215	47,56
858,623	47,68
859,031	47,6
859,439	47,53
859,846	47,57
860,254	47,6
860,661	47,59
861,069	47,82
861,476	47,61
861,883	47,2
862,29	48,02
862,697	47,25
863,104	48,01
863,511	47,18
863,918	47,29
864,325	47,73
864,731	47,31
865,138	47,58
865,544	47,27
865,95	47,22
866,357	47,64
866,763	47,37
867,169	47,41
867,575	47,55
867,98	47,46
868,386	47,7
868,792	47,56
869,197	48
869,603	47,56
870,008	47,6
870,414	47,63
870,819	47,35
871,224	46,98
871,629	47,51
872,034	47,05
872,439	47,55
872,844	47,78
873,248	47,66
873,653	47,71
874,057	47,72
874,462	47,45
874,866	47,31
875,27	47,37
875,674	47,63
876,078	47,49
876,482	47,6
876,886	47,54
877,29	47,78
877,694	47,6
878,097	47,51
878,501	47,37
878,904	47,13
879,308	47,53
879,711	47,44
880,114	47,69
880,517	47,12
880,92	47,47
881,323	47,01
881,726	47,08
882,128	47,63
882,531	47,63
882,934	46,75
883,336	47,58
883,738	47,27
884,141	48,02
884,543	47,29
884,945	47,4
885,347	47,56
885,749	47,35
886,151	47,37
886,552	47,69
886,954	47,2
887,355	47,51
887,757	47,37
888,158	47,65
888,56	47,64
888,961	47,31
889,362	47,33
889,763	47,7
890,164	47,45
890,565	47,13
890,965	47,71
891,366	47,46
891,767	47,26
892,167	47,54
892,567	47,44
892,968	47,2
893,368	47,56
893,768	47,15
894,168	47,07
894,568	47,46
894,968	47,11
895,368	47,39
895,767	47,14
896,167	47,53
896,566	47,36
896,966	47,12
897,365	47,31
897,764	47,62
898,164	47,48
898,563	47,31
898,962	47,5
899,361	47,13
899,759	47,42
900,158	47,13
900,557	47,04
900,955	47,03
901,354	47,6
901,752	46,96
902,15	47,21
902,548	47,04
902,947	47,1
903,345	47,31
903,742	47,24
904,14	47,01
904,538	47,3
904,936	47,18
905,333	47,04
905,731	47,27
906,128	47,36
906,525	47,45
906,923	47,34
907,32	47,03
907,717	47,18
908,114	47,35
908,511	46,98
908,907	47,69
909,304	47,22
909,701	46,87
910,097	47,06
910,494	47,1
910,89	47,08
911,286	47,06
911,682	47,72
912,078	47,54
912,474	47,29
912,87	46,63
913,266	47,51
913,662	47,28
914,058	47,33
914,453	47,09
914,849	47,22
915,244	47,26
915,639	47,88
916,034	47,17
916,43	47,05
916,825	47,22
917,22	47,61
917,614	47,14
918,009	46,95
918,404	47,32
918,798	46,88
919,193	47,32
919,587	47,46
919,982	47,7
920,376	47,22
920,77	47,35
921,164	46,97
921,558	46,94
921,952	46,81
922,346	47,22
922,74	46,7
923,133	47,43
923,527	47,54
923,92	46,98
924,314	47,19
924,707	47,36
925,1	47,12
925,493	46,91
925,886	47,22
926,279	47,44
926,672	47,32
927,065	46,96
927,457	47,15
927,85	47,23
928,243	47,57
928,635	47,04
929,027	46,78
929,42	47,07
929,812	46,98
930,204	47,54
930,596	47,52
930,988	47,39
931,379	47
931,771	47
932,163	47,01
932,554	46,84
932,946	46,83
933,337	47,16
933,729	46,68
934,12	47,28
934,511	46,73
934,902	47,34
935,293	47,29
935,684	46,55
936,075	46,85
936,465	46,63
936,856	46,95
937,246	46,83
937,637	46,81
938,027	47,93
938,417	47,22
938,808	47,32
939,198	46,91
939,588	46,81
939,978	46,14
940,368	46,84
940,757	46,6
941,147	47,36
941,537	47,84
941,926	46,33
942,315	46,95
942,705	46,77
943,094	46,6
943,483	46,75
943,872	47,21
944,261	46,58
944,65	46,98
945,039	46,25
945,428	47,08
945,816	45,8
946,205	47,68
946,593	47,04
946,982	47
947,37	47,06
947,758	47,26
948,146	47,17
948,534	47,5
948,922	47,72
949,31	46,17
949,698	46,31
950,086	46,4
950,473	46,64
950,861	47,11
951,248	47,74
951,636	46,56
952,023	47,04
952,41	46,07
952,797	46,81
953,184	46,67
953,571	47,12
953,958	47,37
954,345	46,72
954,731	47,3
955,118	46,17
955,505	46,94
955,891	46,73
956,277	46,49
956,664	46,8
957,05	46,93
957,436	46,75
957,822	47,03
958,208	46,55
958,594	47,06
958,979	46,33
959,365	46,69
959,751	46,8
960,136	47,08
960,522	46,94
960,907	46,61
961,292	46,96
961,677	47,18
962,062	46,23
962,447	47,02
962,832	46,59
963,217	45,75
963,602	45,47
963,986	46,79
964,371	46,27
964,756	45,67
965,14	46,61
965,524	45,94
965,908	46,97
966,293	46,22
966,677	46,93
967,061	46,24
967,445	46,22
967,828	46,61
968,212	46,22
968,596	47,03
968,979	46,34
969,363	46,44
969,746	46,57
970,129	47,18
970,513	46,69
970,896	46,17
971,279	46,22
971,662	46,21
972,045	46,67
972,428	46,32
972,81	46,38
973,193	46,94
973,575	47,07
973,958	46,5
974,34	46,19
974,723	46,48
975,105	46,74
975,487	46,47
975,869	46,76
976,251	46,22
976,633	46,52
977,015	46,27
977,396	47,15
977,778	46,28
978,16	47,06
978,541	45,97
978,922	47,17
979,304	45,82
979,685	45,9
980,066	46,54
980,447	46,05
980,828	46,48
981,209	47,1
981,59	46,04
981,97	46,61
982,351	46,86
982,732	46,78
983,112	46,23
983,493	45,71
983,873	46,55
984,253	46,35
984,633	46,45
985,013	46,74
985,393	47,29
985,773	46,92
986,153	46,55
986,533	45,78
986,912	47,07
987,292	47,02
987,671	47
988,051	47,65
988,43	45,89
988,809	47,1
989,188	46,72
989,567	46,18
989,946	46,54
990,325	46,26
990,704	46,88
991,083	46,38
991,461	46,38
991,84	46,06
992,218	45,96
992,597	46,2
992,975	45,97
993,353	46,54
993,732	47,19
994,11	46,78
994,488	45,82
994,866	47,29
995,243	47,1
995,621	46,53
995,999	46,72
996,376	46,76
996,754	46,22
997,131	46,13
997,509	46,87
997,886	46,81
998,263	46,11
998,64	47,19
999,017	46,8
999,394	46,04
999,771	46,89
1000,148	46,58
1000,524	47,01
1000,901	46,78
1001,277	47,73
1001,654	46,78
1002,03	46,55
1002,406	46,03
1002,783	46,19
1003,159	46,73
1003,535	47,04
1003,911	46,58
1004,286	46,35
1004,662	46,04
1005,038	46,82
1005,414	47,41
1005,789	47,11
1006,164	46,66
1006,54	46,98
1006,915	46,55
1007,29	46,56
1007,665	47,47
1008,04	46,42
1008,415	46,51
1008,79	47,89
1009,165	47,89
1009,54	47,27
1009,914	47,23
1010,289	45,86
1010,663	47,1
1011,038	46,41
1011,412	46,86
1011,786	47,3
1012,16	47,64
1012,535	46,27
1012,909	46,68
1013,282	47,65
1013,656	47,58
1014,03	46,46
1014,404	47,29
1014,777	46,85
1015,151	47,25
1015,524	46,73
1015,897	46,51
1016,271	47
1016,644	46,92
1017,017	47,06
1017,39	47,46
1017,763	46,74
1018,136	47,69
1018,508	46,4
1018,881	46,98
1019,254	46,59
1019,626	47,36
1019,999	46,31
1020,371	48
1020,743	46,59
1021,116	45,93
1021,488	46,65
1021,86	46,76
1022,232	47,26
1022,604	46,96
1022,975	46,24
1023,347	47
1023,719	47,23
1024,09	47,32
1024,462	46,84
1024,833	46,95
1025,204	47,01
1025,576	46,62
1025,947	46,68
1026,318	46,81
1026,689	47,71
1027,06	47,63
1027,431	48,12
1027,801	47,01
1028,172	47,31
1028,543	46,75
1028,913	47,17
1029,284	48,37
1029,654	47,28
1030,024	46,32
1030,394	46,84
1030,764	47,7
1031,135	46,85
1031,504	47,59
1031,874	47,09
1032,244	46,74
1032,614	47,06
1032,983	46,22
1033,353	46,97
1033,722	46,62
1034,092	46,65
1034,461	47,77
1034,83	46,63
1035,2	47,85
1035,569	46,6
1035,938	47,5
1036,307	47,11
1036,675	47,55
1037,044	47,02
1037,413	47,76
1037,781	46,63
1038,15	47,43
1038,518	46,53
1038,887	47,14
1039,255	48,41
1039,623	47,16
1039,991	48,22
1040,359	46,55
1040,727	47,27
1041,095	46,97
1041,463	48,14
1041,831	47,44
1042,198	47,55
1042,566	47,17
1042,933	46,66
1043,301	48,25
1043,668	48,63
1044,035	45,98
1044,402	47,31
1044,77	46,49
1045,137	48,17
1045,503	47,93
1045,87	47,78
1046,237	46,58
1046,604	47,62
1046,97	49,16
1047,337	47,11
1047,703	47,65
1048,07	48,41
1048,436	47,03
1048,802	47,55
1049,168	48,47
1049,534	46,13
1049,9	47,24
1050,266	48,1
1050,632	47
1050,998	47,46
1051,364	47,66
1051,729	47,99
1052,095	48,24
1052,46	49,19
1052,825	47,58
1053,191	48,78
1053,556	47,74
1053,921	47,34
1054,286	48,75
1054,651	47,71
1055,016	47,94
1055,381	46,92
1055,745	46,9
1056,11	47,91
1056,475	46,87
1056,839	47,4
1057,203	47,39
1057,568	48,93
1057,932	48,3
1058,296	48,55
1058,66	48,03
1059,024	48,38
1059,388	47,91
1059,752	48,12
1060,116	47,84
1060,48	49,08
1060,843	48,04
1061,207	47,59
1061,57	48,75
1061,934	49,61
1062,297	47,58
1062,66	47,06
1063,023	48,83
1063,386	47,85
1063,749	47,86
1064,112	48,06
1064,475	47,97
1064,838	48,8
1065,201	48,1
1065,563	49,6
1065,926	48,21
1066,288	46,66
1066,651	49,08
1067,013	48,72
1067,375	47,33
1067,737	49,47
1068,099	48,59
1068,461	47,47
1068,823	50,5
1069,185	46,82
1069,547	47,57
1069,909	48,23
1070,27	45,99
1070,632	48,68
1070,993	48,96
1071,355	48,99
1071,716	47,84
1072,077	47,19
1072,438	48,23
1072,799	48,21
1073,16	47,43
1073,521	48,01
1073,882	46,74
1074,243	46,02
1074,603	48,42
1074,964	48,22
1075,325	47,71
1075,685	48,39
1076,045	46,88
1076,406	48,65
1076,766	48,45
1077,126	48,54
1077,486	47,35
1077,846	49,19
1078,206	49,49
1078,566	48,44
1078,925	49,04
1079,285	48,6
1079,645	47,2
1080,004	47,78
1080,364	49,21
1080,723	46,87
1081,082	47,96
1081,442	50,25
1081,801	47,21
1082,16	46,43
1082,519	52,6
1082,878	47,61
1083,237	46,02
1083,595	50,42
1083,954	47,48
1084,313	47,85
1084,671	48,73
1085,03	49,46
1085,388	50,33
1085,746	49,49
1086,104	47,18
1086,463	49,54
1086,821	48,17
1087,179	47,41
1087,537	47,41
1087,894	50,58
1088,252	50,59
1088,61	47,85
1088,967	50,14
1089,325	51,59
1089,682	47,28
1090,04	51,53
1090,397	49,91
1090,754	49,13
1091,111	48,56
1091,469	49,74
1091,826	50,29
1092,182	47,04
1092,539	49,46
1092,896	48,28
1093,253	49,46
1093,609	48,01
1093,966	49,12
1094,322	48,66
1094,679	50,06
1095,035	50,35
1095,391	46,64
1095,748	51,28
1096,104	49,74
1096,46	50,33
1096,816	49,24
1097,171	48,44
1097,527	48,22
1097,883	49,45
1098,239	48,24
1098,594	49,68
1098,95	49,89
1099,305	49,71
1099,66	51,21
1100,016	50
1100,371	51,46
1100,726	49,7
1101,081	48,86
1101,436	49,41
1101,791	50,84
1102,146	50,29
1102,5	48,64
1102,855	52
1103,21	53,25
1103,564	51,39
1103,918	48,77
1104,273	52,12
1104,627	49,29
1104,981	51,88
1105,335	50,27
1105,69	50,36
1106,043	48,85
1106,397	51,72
1106,751	51,33
1107,105	53,57
1107,459	50,93
1107,812	51,88
1108,166	53,93
1108,519	53,15
1108,873	49,89
1109,226	52,64
1109,579	54,96
1109,932	52,34
1110,285	52,26
1110,638	52,28
1110,991	50,88
1111,344	49,94
1111,697	48,92
1112,05	50,51
1112,402	50,77
1112,755	48,57
1113,107	52,22
1113,46	50,66
1113,812	51,06
1114,164	51,08
1114,517	54,63
1114,869	110
1115,221	108,2
1115,573	109,23
1115,924	90,14
