Data from G6__Relative__0__00094.txt Node

Date: Thu Feb 01 16:25:52 CET 2024
User: diatiterra
Spectrometer: HDX00911
Trigger mode: 0
Integration Time (sec): 6,000000E-3
Scans to average: 2
Nonlinearity correction enabled: false
Boxcar width: 0
Storing dark spectrum: false
XAxis mode: Wavelengths
Number of Pixels in Spectrum: 2068
>>>>>Begin Spectral Data<<<<<
194,468	226,15
195,025	126,39
195,581	166,67
196,138	157,35
196,694	128,57
197,251	134,13
197,807	102,91
198,363	98,82
198,919	86,96
199,474	96,18
200,03	105,68
200,586	96,2
201,141	96,39
201,696	104,05
202,251	86,19
202,806	97,7
203,361	100,55
203,916	96,22
204,471	89,13
205,025	102,16
205,58	95,95
206,134	88,3
206,688	90,58
207,242	101,74
207,796	85,35
208,35	102,33
208,904	94,92
209,457	97,06
210,011	104,91
210,564	104,84
211,117	117,65
211,67	102,25
212,223	101,03
212,776	86,1
213,329	102,67
213,881	89,12
214,434	93,5
214,986	105,42
215,538	90,76
216,09	104,69
216,642	109,04
217,194	107,65
217,746	98,86
218,297	97,22
218,849	108,14
219,4	96,11
219,951	104
220,502	98,22
221,053	95,83
221,604	117,75
222,155	92,51
222,705	97,66
223,256	101,12
223,806	92,57
224,356	80,41
224,906	108,48
225,456	91,44
226,006	90,16
226,556	94,05
227,106	105,49
227,655	93,72
228,204	88,7
228,754	91,38
229,303	103,53
229,852	100
230,401	103,7
230,949	106,78
231,498	89,36
232,047	96,67
232,595	87,36
233,143	96,84
233,691	91,21
234,239	87,43
234,787	87,21
235,335	101,74
235,883	84,21
236,43	107,1
236,978	87,23
237,525	84,92
238,072	87,78
238,619	95,12
239,166	82,35
239,713	94,97
240,26	95,91
240,806	108,59
241,353	102,33
241,899	101,65
242,445	101,18
242,991	95,14
243,537	105,23
244,083	101,1
244,629	94,5
245,174	98,28
245,72	93,85
246,265	81,68
246,81	92,61
247,355	95,6
247,9	89,41
248,445	108,92
248,99	111,11
249,534	106,18
250,079	98,8
250,623	96,74
251,168	96,55
251,712	99,41
252,256	100,62
252,8	90,96
253,343	99,45
253,887	94,54
254,43	95,45
254,974	91,62
255,517	94,92
256,06	102,84
256,603	102,81
257,146	79,56
257,689	87,83
258,232	91,01
258,774	114,88
259,317	88,46
259,859	94,76
260,401	96,07
260,943	100,64
261,485	91,35
262,027	83,07
262,569	106,62
263,11	86,44
263,652	90,11
264,193	94,89
264,734	82,46
265,275	76,04
265,816	89,19
266,357	100
266,898	79,8
267,438	97,47
267,979	89,2
268,519	100
269,059	112,65
269,6	93,99
270,14	89,8
270,68	103,42
271,219	90,23
271,759	109,62
272,298	99,46
272,838	90,06
273,377	97,21
273,916	106,04
274,455	97,95
274,994	83,89
275,533	110,18
276,072	95,21
276,61	107,69
277,149	91,76
277,687	94,58
278,225	91,76
278,763	84,97
279,301	91,49
279,839	112,23
280,377	87,58
280,914	90,21
281,452	104,47
281,989	90,59
282,526	108,86
283,064	106,88
283,601	100
284,137	97,55
284,674	92,13
285,211	94,62
285,747	93,47
286,284	90,59
286,82	86,98
287,356	75,77
287,892	103,87
288,428	93,1
288,964	86,56
289,5	88,44
290,035	101,7
290,571	97,35
291,106	92,13
291,641	94,77
292,176	94,62
292,711	93,02
293,246	93,48
293,781	93,37
294,315	87,24
294,85	91,61
295,384	97,11
295,918	89,36
296,453	95,14
296,987	86,89
297,52	84,24
298,054	95,4
298,588	100
299,121	87,71
299,655	92,94
300,188	110
300,721	93,79
301,254	95,77
301,787	96,24
302,32	91,71
302,853	107,82
303,385	89,67
303,918	101,14
304,45	91,84
304,982	89,83
305,514	91,49
306,046	94,57
306,578	94,65
307,11	91,16
307,641	98,9
308,173	101,69
308,704	98,86
309,236	87,31
309,767	94,21
310,298	94,34
310,829	90,5
311,359	85,51
311,89	91,81
312,421	101,62
312,951	95,43
313,481	98,82
314,012	94,79
314,542	93,62
315,072	95,58
315,601	100,65
316,131	86,17
316,661	98,3
317,19	95,95
317,72	101,81
318,249	85
318,778	104,08
319,307	97,4
319,836	100,56
320,365	92,59
320,893	101,04
321,422	105,36
321,95	95,31
322,479	111,52
323,007	98,88
323,535	108,67
324,063	100,56
324,591	95,24
325,118	93,55
325,646	98,94
326,173	92,9
326,701	79,49
327,228	95,81
327,755	93,4
328,282	99,44
328,809	110,59
329,336	81,59
329,862	90,29
330,389	76,8
330,915	86,53
331,441	104,09
331,968	103,37
332,494	92,86
333,02	98,32
333,545	85,71
334,071	82,05
334,597	92,7
335,122	88,83
335,648	89,42
336,173	84,86
336,698	89,36
337,223	90,37
337,748	72,64
338,272	70,21
338,797	85,79
339,322	80,54
339,846	84,95
340,37	82,51
340,894	82,59
341,419	86,21
341,942	77,78
342,466	76,68
342,99	82,2
343,514	75,49
344,037	87,23
344,56	73,68
345,084	86,57
345,607	73,79
346,13	77
346,653	78,5
347,175	76,08
347,698	90,45
348,221	75,59
348,743	69,75
349,265	79,8
349,787	74,15
350,309	67,61
350,831	71,97
351,353	79,62
351,875	66,4
352,397	65,52
352,918	68,75
353,439	66,67
353,961	62,2
354,482	69,79
355,003	70,78
355,524	70,78
356,044	73,03
356,565	60,57
357,086	57,68
357,606	57,45
358,126	64,37
358,646	56,51
359,167	69,13
359,687	61,34
360,206	57,78
360,726	63,42
361,246	60,38
361,765	60,14
362,285	57,25
362,804	63,67
363,323	61,35
363,842	57,04
364,361	56,2
364,88	56,31
365,398	60
365,917	54,63
366,435	56,67
366,954	52,77
367,472	56,33
367,99	49,35
368,508	55
369,026	54,17
369,544	50,94
370,061	51,63
370,579	52,78
371,096	49,31
371,613	57,55
372,131	46,09
372,648	50,14
373,165	46,85
373,681	48,19
374,198	49,57
374,715	52,42
375,231	46,84
375,747	49,21
376,264	45,17
376,78	47,72
377,296	39,66
377,812	44,56
378,327	46,37
378,843	45,27
379,359	43,4
379,874	47,64
380,389	38,83
380,905	41,29
381,42	40,67
381,935	36,46
382,449	38,22
382,964	38,46
383,479	38,07
383,993	42,03
384,508	37,59
385,022	39,46
385,536	34,87
386,05	36,16
386,564	36,94
387,078	37,63
387,592	33,9
388,105	28,26
388,619	30,24
389,132	33,75
389,645	31,84
390,158	31,73
390,671	33,23
391,184	28,61
391,697	28,79
392,21	29,67
392,722	28,95
393,235	25,89
393,747	28,89
394,259	30
394,771	30,7
395,283	30,08
395,795	29,77
396,307	27,89
396,818	27,25
397,33	25,61
397,841	26,52
398,353	26,06
398,864	27,06
399,375	23,83
399,886	23,18
400,397	22,7
400,907	22,56
401,418	21,39
401,928	22,98
402,439	19,98
402,949	18,93
403,459	21,59
403,969	19,13
404,479	19,86
404,989	18,45
405,498	18,09
406,008	17,48
406,517	16,65
407,027	16,51
407,536	16,25
408,045	16,69
408,554	15,04
409,063	14,56
409,572	14,38
410,08	14,24
410,589	13,88
411,097	12,92
411,606	12,41
412,114	12,61
412,622	10,79
413,13	11,95
413,638	10,13
414,145	9,35
414,653	9,88
415,16	9,59
415,668	10,28
416,175	10,04
416,682	9,14
417,189	8,61
417,696	8,6
418,203	8,64
418,71	8,61
419,216	8,58
419,723	8,68
420,229	7,82
420,735	8,74
421,242	7,52
421,748	7,23
422,254	6,89
422,759	6,9
423,265	7,67
423,771	7,75
424,276	6,66
424,781	7,35
425,287	6,92
425,792	7,27
426,297	6,7
426,802	6,68
427,306	6,75
427,811	6,37
428,316	6,9
428,82	6,32
429,324	6,77
429,829	6,57
430,333	6,74
430,837	6,35
431,34	6,15
431,844	6,06
432,348	6,44
432,851	5,91
433,355	5,65
433,858	5,64
434,361	6,23
434,864	5,7
435,367	5,53
435,87	5,75
436,373	5,74
436,876	6,04
437,378	5,78
437,88	5,85
438,383	5,59
438,885	5,6
439,387	6,17
439,889	5,1
440,391	5,57
440,892	5,72
441,394	5,11
441,896	5,69
442,397	5,18
442,898	5,33
443,399	5,44
443,9	5,38
444,401	5,69
444,902	5,47
445,403	5,51
445,903	5,36
446,404	5,55
446,904	5,05
447,405	5,21
447,905	5,19
448,405	4,96
448,905	5,23
449,404	5,44
449,904	5,26
450,404	5,25
450,903	5,33
451,403	5,39
451,902	5,21
452,401	5,06
452,9	5,34
453,399	5,05
453,898	5,13
454,396	5,31
454,895	5,14
455,393	5,26
455,892	5,43
456,39	5,18
456,888	5,35
457,386	5,26
457,884	5,26
458,382	4,79
458,879	5,11
459,377	5,31
459,874	5,32
460,372	5,28
460,869	5,1
461,366	4,86
461,863	5,32
462,36	4,91
462,857	5,09
463,353	5,2
463,85	4,93
464,346	5,06
464,843	4,8
465,339	4,83
465,835	5,21
466,331	5,13
466,827	5,05
467,323	5,29
467,818	5,04
468,314	5,09
468,809	5,03
469,305	4,76
469,8	4,9
470,295	5,16
470,79	4,78
471,285	4,96
471,78	5,29
472,274	4,96
472,769	4,82
473,263	4,82
473,758	4,97
474,252	5,14
474,746	4,71
475,24	4,74
475,734	4,83
476,228	4,97
476,721	4,77
477,215	4,94
477,708	5,12
478,202	4,94
478,695	5,15
479,188	4,91
479,681	4,91
480,174	4,84
480,667	5
481,159	4,99
481,652	4,89
482,144	5
482,637	5,27
483,129	4,84
483,621	4,86
484,113	5,13
484,605	4,81
485,097	5,2
485,588	5,03
486,08	4,82
486,571	5,48
487,063	4,57
487,554	5,13
488,045	5,33
488,536	4,83
489,027	4,9
489,518	4,89
490,008	4,96
490,499	5
490,989	5,14
491,48	5,05
491,97	5,03
492,46	5,2
492,95	5,14
493,44	5,25
493,93	5,26
494,419	5,04
494,909	5,36
495,398	5,29
495,888	5,49
496,377	5,47
496,866	5,07
497,355	5,58
497,844	5,39
498,333	5,42
498,821	5,51
499,31	5,38
499,798	5,84
500,287	5,9
500,775	5,79
501,263	5,82
501,751	5,92
502,239	5,93
502,727	5,76
503,215	5,75
503,702	6,19
504,19	6,33
504,677	6,44
505,164	6,45
505,651	6,38
506,139	6,61
506,625	6,77
507,112	6,73
507,599	6,57
508,086	7
508,572	7,09
509,058	7,38
509,545	7,13
510,031	7,69
510,517	7,54
511,003	7,45
511,489	7,89
511,974	8,09
512,46	8,26
512,946	8,21
513,431	8,61
513,916	9,1
514,401	8,65
514,887	9,32
515,371	9,39
515,856	9,4
516,341	9,91
516,826	10,05
517,31	10,19
517,795	10,93
518,279	11,15
518,763	10,93
519,247	11,09
519,731	11,71
520,215	11,93
520,699	12,28
521,182	12,39
521,666	12,86
522,149	13,02
522,633	13,33
523,116	13,43
523,599	13,8
524,082	14,06
524,565	14,26
525,048	14,76
525,53	15,18
526,013	15,29
526,495	15,29
526,978	15,29
527,46	15,75
527,942	16,04
528,424	16,29
528,906	16,39
529,388	16,82
529,87	16,82
530,351	17,28
530,833	17,72
531,314	17,35
531,795	17,72
532,277	17,66
532,758	17,63
533,238	17,92
533,719	18,06
534,2	18,38
534,681	18,71
535,161	18,64
535,642	18,68
536,122	18,67
536,602	18,85
537,082	18,9
537,562	19,16
538,042	18,74
538,522	19,31
539,001	19,31
539,481	18,86
539,96	19,43
540,44	19,57
540,919	19,29
541,398	19,7
541,877	19,44
542,356	19,41
542,835	19,55
543,313	19,56
543,792	20
544,27	19,89
544,749	19,42
545,227	20,1
545,705	20
546,183	20,07
546,661	19,99
547,139	20,21
547,616	20,17
548,094	20,11
548,571	20,46
549,049	20,66
549,526	19,62
550,003	19,73
550,48	20,91
550,957	19,96
551,434	20,16
551,911	20,28
552,387	20,25
552,864	20,36
553,34	20,95
553,817	20,48
554,293	20,32
554,769	19,99
555,245	20,77
555,721	20,11
556,197	20,28
556,672	20,32
557,148	20,04
557,623	20,07
558,099	20,27
558,574	20,25
559,049	19,72
559,524	20,11
559,999	19,89
560,474	19,57
560,948	19,59
561,423	19,38
561,897	19,68
562,372	19,2
562,846	19,02
563,32	19,21
563,794	19,08
564,268	18,66
564,742	19,18
565,216	18,93
565,69	18,74
566,163	18,18
566,636	18,39
567,11	17,89
567,583	17,93
568,056	17,79
568,529	17,2
569,002	17,57
569,475	17,4
569,947	16,99
570,42	17,27
570,892	16,67
571,365	16,56
571,837	16,32
572,309	15,73
572,781	15,93
573,253	15,97
573,725	15,5
574,197	15,72
574,668	15,5
575,14	14,99
575,611	15,03
576,082	14,98
576,554	14,96
577,025	14,51
577,496	14,33
577,967	14,5
578,437	14,18
578,908	14,09
579,379	13,78
579,849	13,77
580,319	13,89
580,79	13,56
581,26	13,25
581,73	13,49
582,2	13,26
582,669	13,07
583,139	13,11
583,609	13,17
584,078	12,7
584,548	13,08
585,017	12,66
585,486	12,28
585,955	12,39
586,424	12,3
586,893	12,05
587,362	12,16
587,83	12,09
588,299	12,23
588,767	12,14
589,236	11,97
589,704	11,91
590,172	11,85
590,64	11,74
591,108	11,58
591,576	11,67
592,043	11,61
592,511	11,59
592,978	11,6
593,446	11,48
593,913	11,38
594,38	11,16
594,847	11,41
595,314	11,19
595,781	11,26
596,248	11,13
596,715	11,23
597,181	11,45
597,647	11,17
598,114	11,13
598,58	10,93
599,046	11,09
599,512	10,95
599,978	11
600,444	10,95
600,91	10,85
601,375	10,96
601,841	10,96
602,306	11
602,771	10,7
603,236	10,84
603,702	10,6
604,167	10,72
604,631	10,7
605,096	10,63
605,561	10,63
606,025	10,5
606,49	10,42
606,954	10,29
607,418	10,28
607,882	10,21
608,347	10,08
608,81	10,27
609,274	9,92
609,738	9,9
610,202	9,86
610,665	10,09
611,128	9,89
611,592	9,92
612,055	9,73
612,518	9,53
612,981	9,54
613,444	9,43
613,907	9,43
614,369	9,28
614,832	9,23
615,294	9,13
615,757	8,87
616,219	9,07
616,681	8,91
617,143	8,69
617,605	8,82
618,067	8,84
618,529	8,85
618,99	8,63
619,452	8,64
619,913	8,58
620,375	8,56
620,836	8,53
621,297	8,77
621,758	8,39
622,219	8,32
622,68	8,56
623,14	8,29
623,601	8,41
624,061	8,21
624,522	8,26
624,982	8,29
625,442	8,24
625,902	8,28
626,362	8,17
626,822	8,14
627,282	8,09
627,742	8,04
628,201	7,97
628,661	8,11
629,12	8,3
629,579	8,08
630,038	8,04
630,497	8,16
630,956	8,06
631,415	7,98
631,874	7,9
632,332	7,92
632,791	7,96
633,249	7,9
633,708	7,93
634,166	7,8
634,624	7,58
635,082	7,74
635,54	7,56
635,998	7,5
636,455	7,65
636,913	7,59
637,37	7,34
637,828	7,2
638,285	7,21
638,742	7,11
639,199	7,03
639,656	7,14
640,113	6,79
640,57	6,69
641,027	6,71
641,483	6,68
641,94	6,59
642,396	6,5
642,852	6,54
643,309	6,39
643,765	6,25
644,221	6,22
644,676	6,16
645,132	6,02
645,588	5,94
646,043	5,87
646,499	5,66
646,954	5,85
647,409	5,73
647,864	5,69
648,319	5,68
648,774	5,45
649,229	5,4
649,684	5,34
650,139	5,44
650,593	5,48
651,047	5,3
651,502	5,32
651,956	5,29
652,41	5,34
652,864	5,39
653,318	5,3
653,772	5,38
654,225	5,29
654,679	5,28
655,133	5,21
655,586	5,26
656,039	5,2
656,492	5,16
656,946	5,17
657,399	5,02
657,851	5,1
658,304	5,17
658,757	4,99
659,209	5,13
659,662	5,13
660,114	5,03
660,567	4,96
661,019	4,88
661,471	4,82
661,923	4,92
662,375	4,87
662,826	4,98
663,278	4,82
663,73	4,76
664,181	4,79
664,632	4,81
665,084	4,86
665,535	4,76
665,986	4,68
666,437	4,82
666,888	4,87
667,338	4,83
667,789	4,81
668,24	4,84
668,69	4,94
669,14	4,78
669,591	4,94
670,041	5
670,491	5,05
670,941	5,1
671,391	5,15
671,84	5,06
672,29	5,41
672,74	5,21
673,189	5,36
673,638	5,44
674,088	5,42
674,537	5,55
674,986	5,66
675,435	5,71
675,883	5,68
676,332	5,78
676,781	5,89
677,229	6,01
677,678	6,07
678,126	6,15
678,574	6,22
679,022	6,25
679,47	6,53
679,918	6,55
680,366	6,61
680,814	6,64
681,261	6,81
681,709	6,88
682,156	6,95
682,604	7,09
683,051	7,21
683,498	7,17
683,945	7,24
684,392	7,51
684,839	7,53
685,286	7,4
685,732	7,59
686,179	7,71
686,625	7,72
687,071	7,87
687,518	7,9
687,964	7,95
688,41	8,16
688,856	8,29
689,301	8,34
689,747	8,54
690,193	8,7
690,638	8,94
691,084	9,1
691,529	9,34
691,974	9,57
692,419	9,96
692,864	10,45
693,309	10,7
693,754	11,17
694,199	11,62
694,643	11,8
695,088	12,36
695,532	12,96
695,977	13,24
696,421	13,78
696,865	14,18
697,309	14,76
697,753	15,33
698,197	15,92
698,64	16,42
699,084	17,13
699,527	17,55
699,971	18,21
700,414	18,97
700,857	19,3
701,3	19,83
701,743	20,48
702,186	21,04
702,629	21,72
703,072	22,2
703,515	23,07
703,957	23,36
704,399	24,12
704,842	24,76
705,284	25,37
705,726	25,94
706,168	26,46
706,61	26,99
707,052	27,52
707,494	28,26
707,935	29,04
708,377	29,79
708,818	30,14
709,26	31,01
709,701	31,19
710,142	31,78
710,583	32,26
711,024	33,07
711,465	33,57
711,905	34,16
712,346	34,79
712,787	35,55
713,227	36,05
713,667	36,81
714,108	37,2
714,548	37,91
714,988	38,06
715,428	38,81
715,868	39,28
716,307	40,02
716,747	40,39
717,186	41,17
717,626	41,78
718,065	42,33
718,504	42,82
718,944	43,71
719,383	43,81
719,822	44,13
720,261	44,49
720,699	45,46
721,138	45,78
721,576	46,45
722,015	46,87
722,453	47,32
722,892	47,69
723,33	48,52
723,768	49,04
724,206	49,31
724,644	49,73
725,081	50,2
725,519	50,72
725,957	51,14
726,394	51,47
726,832	52,12
727,269	52,75
727,706	52,95
728,143	53,65
728,58	53,47
729,017	54,04
729,454	54,18
729,89	54,31
730,327	55,23
730,764	55,27
731,2	55,7
731,636	56,26
732,072	56,38
732,509	56,99
732,945	56,81
733,38	57,13
733,816	57,49
734,252	57,83
734,688	58,03
735,123	58,64
735,559	58,45
735,994	58,92
736,429	58,32
736,864	58,92
737,299	59,13
737,734	59,78
738,169	59,97
738,604	59,86
739,038	60,28
739,473	60,4
739,907	60,39
740,342	60,24
740,776	61,02
741,21	60,87
741,644	60,55
742,078	61,36
742,512	61,45
742,946	61,14
743,379	61,27
743,813	61,37
744,246	61,03
744,68	62,07
745,113	62,2
745,546	61,93
745,979	62,45
746,412	62,02
746,845	62,1
747,278	62,72
747,711	62,27
748,143	62,09
748,576	62,26
749,008	62,51
749,441	62,44
749,873	61,88
750,305	62,15
750,737	62,38
751,169	62
751,601	62,73
752,032	62,69
752,464	61,87
752,896	61,97
753,327	62,58
753,758	62,12
754,19	62,42
754,621	62,4
755,052	62,24
755,483	62,3
755,914	62,15
756,344	62,2
756,775	62,49
757,206	62,08
757,636	62,24
758,066	61,95
758,497	61,84
758,927	62,48
759,357	62,07
759,787	62,07
760,217	62,04
760,647	61,77
761,076	61,75
761,506	61,77
761,935	62,27
762,365	62,38
762,794	61,92
763,223	61,85
763,653	62,01
764,082	62,14
764,51	61,52
764,939	61,69
765,368	61,88
765,797	61,69
766,225	61,71
766,654	61,45
767,082	61,44
767,51	61,68
767,938	61,16
768,367	61,64
768,795	61,86
769,222	61,6
769,65	61,67
770,078	61,43
770,505	61,06
770,933	60,87
771,36	61,43
771,788	61,53
772,215	61,28
772,642	61,05
773,069	61,14
773,496	61,07
773,923	61,05
774,349	61,5
774,776	60,93
775,203	61,09
775,629	61,15
776,055	61,23
776,482	61,07
776,908	61,02
777,334	61,28
777,76	60,8
778,186	61,44
778,611	60,96
779,037	61,36
779,463	60,82
779,888	60,56
780,314	61,01
780,739	60,52
781,164	60,88
781,589	60,88
782,014	60,62
782,439	60,78
782,864	60,98
783,289	60,64
783,713	60,77
784,138	60,95
784,562	61,06
784,987	61,09
785,411	61,05
785,835	60,85
786,259	60,17
786,683	60,6
787,107	60,7
787,531	60,54
787,954	60,74
788,378	60,75
788,802	60,69
789,225	60,52
789,648	60,56
790,071	60,75
790,495	60,5
790,918	60,5
791,34	60,69
791,763	60,66
792,186	60,68
792,609	60,32
793,031	60,2
793,454	60,38
793,876	60,14
794,298	60,79
794,721	60,27
795,143	60,59
795,565	60,32
795,986	60,65
796,408	60,19
796,83	60,25
797,252	60,63
797,673	60,8
798,094	60,23
798,516	60,77
798,937	60,32
799,358	60,05
799,779	60,44
800,2	60,43
800,621	59,84
801,042	60,66
801,462	59,92
801,883	60,12
802,303	60,19
802,724	60,11
803,144	60,16
803,564	60,13
803,984	60,87
804,404	60,59
804,824	60,58
805,244	60,05
805,664	60,17
806,084	60,32
806,503	60,19
806,923	59,97
807,342	60,25
807,761	60,01
808,18	60,48
808,599	60,44
809,018	60,3
809,437	60,22
809,856	60,22
810,275	60,48
810,693	60,18
811,112	60,03
811,53	60,31
811,949	60,23
812,367	60,33
812,785	60,18
813,203	60,13
813,621	60,08
814,039	59,82
814,457	59,63
814,874	60,06
815,292	60,37
815,709	59,84
816,127	60,34
816,544	60,24
816,961	60,12
817,378	60,48
817,795	60,23
818,212	60,23
818,629	60,36
819,046	60,69
819,462	60,35
819,879	59,81
820,295	60,23
820,712	59,98
821,128	60,15
821,544	59,87
821,96	59,68
822,376	60,23
822,792	60,41
823,208	60,21
823,624	60,11
824,039	59,47
824,455	59,72
824,87	60,08
825,286	60,03
825,701	60,48
826,116	59,47
826,531	60,07
826,946	60,05
827,361	59,97
827,776	60,18
828,19	59,65
828,605	59,85
829,02	60
829,434	60,03
829,848	59,46
830,263	60,08
830,677	60,32
831,091	60,15
831,505	60,32
831,919	60,05
832,332	59,81
832,746	60
833,16	59,69
833,573	59,36
833,987	59,49
834,4	59,94
834,813	60,21
835,226	59,62
835,639	59,99
836,052	59,89
836,465	59,78
836,878	59,99
837,29	59,73
837,703	59,77
838,116	59,53
838,528	59,82
838,94	59,67
839,352	59,79
839,765	59,88
840,177	59,81
840,589	59,17
841	59,48
841,412	59,46
841,824	59,96
842,235	59,71
842,647	59,6
843,058	59,59
843,47	59,5
843,881	59,99
844,292	60,2
844,703	59,75
845,114	59,43
845,525	59,63
845,935	59,21
846,346	59,98
846,757	59,96
847,167	59,41
847,577	59,62
847,988	59,59
848,398	59,17
848,808	59,81
849,218	59,44
849,628	59,67
850,038	59,1
850,448	59,57
850,857	59,58
851,267	59,79
851,676	59,8
852,086	59,61
852,495	59,71
852,904	60,02
853,313	59,53
853,722	59,31
854,131	59,42
854,54	59,63
854,949	59,17
855,357	59,62
855,766	59,33
856,174	59,61
856,583	59,53
856,991	59,39
857,399	59,23
857,807	59,47
858,215	59,53
858,623	59,92
859,031	59,84
859,439	59,67
859,846	59,47
860,254	59,43
860,661	59,41
861,069	59,53
861,476	59,49
861,883	59,42
862,29	59,23
862,697	59,51
863,104	59,32
863,511	59,73
863,918	59,07
864,325	59,26
864,731	59,16
865,138	59,5
865,544	59,25
865,95	59,41
866,357	59,27
866,763	59,41
867,169	58,93
867,575	59,97
867,98	59,62
868,386	59,51
868,792	59,25
869,197	59,92
869,603	59,33
870,008	59,14
870,414	59,91
870,819	59,48
871,224	58,99
871,629	59,15
872,034	59,1
872,439	59,72
872,844	59,32
873,248	59,44
873,653	59,92
874,057	59,46
874,462	59,66
874,866	59,65
875,27	59,57
875,674	59,71
876,078	59,52
876,482	59,64
876,886	59,17
877,29	59,39
877,694	59,6
878,097	58,98
878,501	59,63
878,904	59,44
879,308	59,37
879,711	58,75
880,114	59,37
880,517	59,36
880,92	59,27
881,323	59,16
881,726	59,4
882,128	59,51
882,531	59,8
882,934	59,71
883,336	59,4
883,738	59,35
884,141	59,11
884,543	59,55
884,945	59,19
885,347	59,66
885,749	58,88
886,151	59,23
886,552	59,34
886,954	59,14
887,355	59,88
887,757	59,2
888,158	59,26
888,56	59,61
888,961	59,39
889,362	59,52
889,763	59,54
890,164	59,42
890,565	59,22
890,965	59,18
891,366	59,3
891,767	59,73
892,167	59,29
892,567	59,3
892,968	59,06
893,368	58,91
893,768	59,24
894,168	59,04
894,568	59,34
894,968	59,05
895,368	58,93
895,767	59,47
896,167	59,76
896,566	59,99
896,966	58,62
897,365	59
897,764	59,12
898,164	58,81
898,563	59,25
898,962	59,04
899,361	59,19
899,759	59,15
900,158	59,13
900,557	59,46
900,955	58,89
901,354	59,66
901,752	58,36
902,15	58,93
902,548	58,87
902,947	59,28
903,345	59,41
903,742	59,12
904,14	59,76
904,538	59,31
904,936	59,13
905,333	59,16
905,731	59,25
906,128	59,17
906,525	59,53
906,923	59,6
907,32	59,61
907,717	59,2
908,114	59,2
908,511	59,17
908,907	59,76
909,304	59,39
909,701	59,21
910,097	59,26
910,494	59,16
910,89	59,25
911,286	59,05
911,682	59,78
912,078	59,54
912,474	59,28
912,87	59,2
913,266	59,34
913,662	58,82
914,058	58,96
914,453	59,71
914,849	58,83
915,244	59,31
915,639	59,47
916,034	59,42
916,43	59,16
916,825	59,04
917,22	58,97
917,614	59,2
918,009	58,92
918,404	59,23
918,798	59,17
919,193	58,78
919,587	59,38
919,982	59,16
920,376	58,83
920,77	59,13
921,164	59,06
921,558	59,17
921,952	58,34
922,346	58,89
922,74	58,54
923,133	59,92
923,527	59,21
923,92	58,65
924,314	59,08
924,707	59,45
925,1	58,91
925,493	59
925,886	59,04
926,279	59,39
926,672	59,14
927,065	59,02
927,457	58,55
927,85	58,34
928,243	58,61
928,635	59,13
929,027	58,9
929,42	58,84
929,812	58,83
930,204	59,32
930,596	59,41
930,988	59,02
931,379	59,25
931,771	58,91
932,163	59,28
932,554	59,25
932,946	58,94
933,337	59,2
933,729	58,7
934,12	57,88
934,511	59,22
934,902	57,98
935,293	58,76
935,684	58,81
936,075	58,76
936,465	58,44
936,856	58,43
937,246	58,45
937,637	57,94
938,027	58,98
938,417	59,35
938,808	59,42
939,198	58,8
939,588	58,52
939,978	58,84
940,368	58,9
940,757	58,28
941,147	58,78
941,537	60,09
941,926	57,99
942,315	57,59
942,705	59,02
943,094	57,52
943,483	58,84
943,872	57,89
944,261	58,17
944,65	58,45
945,039	57,52
945,428	58,54
945,816	58
946,205	58,13
946,593	58,29
946,982	58,49
947,37	58,14
947,758	58,17
948,146	58,03
948,534	57,28
948,922	58,52
949,31	57,76
949,698	57,82
950,086	57,27
950,473	57,67
950,861	57,79
951,248	57,77
951,636	57,51
952,023	57,06
952,41	57,53
952,797	57,21
953,184	57,42
953,571	58,35
953,958	57,88
954,345	56,61
954,731	57,35
955,118	56,37
955,505	57,43
955,891	56,65
956,277	57,21
956,664	56,51
957,05	57,13
957,436	57,09
957,822	56,73
958,208	56,42
958,594	56,94
958,979	56,16
959,365	56,68
959,751	56,97
960,136	57,49
960,522	57,15
960,907	56,8
961,292	56,47
961,677	56,71
962,062	56,52
962,447	56,65
962,832	56,44
963,217	55,46
963,602	56,25
963,986	56,71
964,371	56,3
964,756	56
965,14	56,11
965,524	55,77
965,908	56,27
966,293	56,93
966,677	56,15
967,061	56,43
967,445	56,23
967,828	56,12
968,212	56,61
968,596	56,6
968,979	56,03
969,363	57,33
969,746	55,96
970,129	57,5
970,513	55,94
970,896	56,29
971,279	56,68
971,662	57,01
972,045	56,49
972,428	56,28
972,81	56,37
973,193	56,74
973,575	56,88
973,958	56,52
974,34	57,15
974,723	56,58
975,105	57,3
975,487	56,93
975,869	56,55
976,251	56,13
976,633	56,5
977,015	56,45
977,396	55,91
977,778	56,33
978,16	56,58
978,541	55,93
978,922	56,54
979,304	55,8
979,685	56,5
980,066	56,76
980,447	56,27
980,828	56,47
981,209	56,92
981,59	55,72
981,97	57,21
982,351	56,61
982,732	56,89
983,112	56,58
983,493	56,34
983,873	57,09
984,253	56,41
984,633	56,16
985,013	56,85
985,393	56,9
985,773	57,21
986,153	57,09
986,533	56,46
986,912	56,82
987,292	56,77
987,671	56,92
988,051	57,33
988,43	56,25
988,809	57,28
989,188	56,66
989,567	56,57
989,946	56,45
990,325	56,54
990,704	57,43
991,083	57,08
991,461	56,82
991,84	56,79
992,218	56,44
992,597	56,29
992,975	55,81
993,353	56,41
993,732	57,11
994,11	56,8
994,488	57,15
994,866	57,59
995,243	56,86
995,621	56,73
995,999	56,94
996,376	56,6
996,754	57,84
997,131	57,21
997,509	58,65
997,886	57,14
998,263	56,98
998,64	57,04
999,017	56,77
999,394	57,35
999,771	56,41
1000,148	57,42
1000,524	57,09
1000,901	57,52
1001,277	58,78
1001,654	57,2
1002,03	57,66
1002,406	57,11
1002,783	57,62
1003,159	58,31
1003,535	57,28
1003,911	57,23
1004,286	58,09
1004,662	57,08
1005,038	57,78
1005,414	58,3
1005,789	57,84
1006,164	57,14
1006,54	57
1006,915	56,83
1007,29	57,34
1007,665	57,68
1008,04	57,18
1008,415	57,08
1008,79	58,96
1009,165	57,45
1009,54	58,07
1009,914	57,84
1010,289	56,6
1010,663	58,67
1011,038	58,37
1011,412	58,27
1011,786	57,89
1012,16	58,7
1012,535	57
1012,909	58,2
1013,282	58,89
1013,656	58,12
1014,03	58,21
1014,404	58,22
1014,777	58,43
1015,151	58,89
1015,524	58,43
1015,897	57,33
1016,271	58,46
1016,644	57,62
1017,017	58,19
1017,39	57,74
1017,763	58,2
1018,136	58,74
1018,508	58,81
1018,881	58,82
1019,254	58,97
1019,626	58,05
1019,999	58,31
1020,371	59,17
1020,743	58,01
1021,116	57,51
1021,488	58,58
1021,86	58,77
1022,232	57,89
1022,604	58,29
1022,975	57,68
1023,347	59,42
1023,719	58,85
1024,09	58,37
1024,462	59,04
1024,833	59,54
1025,204	59,47
1025,576	59,27
1025,947	58,35
1026,318	58,34
1026,689	60,16
1027,06	59,61
1027,431	59,74
1027,801	59,3
1028,172	59,73
1028,543	59,25
1028,913	59,03
1029,284	59,12
1029,654	58,93
1030,024	58,49
1030,394	59,14
1030,764	59,93
1031,135	59,08
1031,504	59,88
1031,874	60,28
1032,244	59,66
1032,614	59,75
1032,983	58,57
1033,353	59,68
1033,722	59,11
1034,092	59,21
1034,461	59
1034,83	58,47
1035,2	60,33
1035,569	58,66
1035,938	59,9
1036,307	59,35
1036,675	60,49
1037,044	59,46
1037,413	59,48
1037,781	59,53
1038,15	59,64
1038,518	59,57
1038,887	60,34
1039,255	59,78
1039,623	59,89
1039,991	60,48
1040,359	60,77
1040,727	59,54
1041,095	60,3
1041,463	59,13
1041,831	60,43
1042,198	60,44
1042,566	60,56
1042,933	60,59
1043,301	59,6
1043,668	60,68
1044,035	59,47
1044,402	61,47
1044,77	60,4
1045,137	61,67
1045,503	62,23
1045,87	59,17
1046,237	60,21
1046,604	59,84
1046,97	62,96
1047,337	60,04
1047,703	60,81
1048,07	61,27
1048,436	59,5
1048,802	60,23
1049,168	60,97
1049,534	60,04
1049,9	60,94
1050,266	62
1050,632	60,67
1050,998	60,88
1051,364	60,62
1051,729	61,02
1052,095	61,46
1052,46	62,09
1052,825	61,53
1053,191	60,52
1053,556	61,4
1053,921	61,79
1054,286	61,39
1054,651	61,07
1055,016	60,94
1055,381	61,27
1055,745	61,46
1056,11	60,91
1056,475	60,35
1056,839	61,45
1057,203	60,88
1057,568	61,25
1057,932	60,02
1058,296	62,22
1058,66	62,12
1059,024	61,99
1059,388	63,37
1059,752	63,58
1060,116	62,81
1060,48	61,9
1060,843	61,08
1061,207	61,7
1061,57	62,53
1061,934	63,93
1062,297	63,1
1062,66	62,07
1063,023	64,08
1063,386	62,13
1063,749	61,33
1064,112	61,43
1064,475	62,8
1064,838	62,47
1065,201	62,53
1065,563	63,23
1065,926	63,88
1066,288	61,41
1066,651	62,74
1067,013	62,37
1067,375	59,28
1067,737	64,06
1068,099	64,11
1068,461	60,89
1068,823	61,77
1069,185	61,45
1069,547	60,88
1069,909	63,59
1070,27	61,62
1070,632	63,13
1070,993	62,31
1071,355	62,61
1071,716	62,5
1072,077	62,32
1072,438	61,28
1072,799	62,18
1073,16	64,47
1073,521	63,11
1073,882	61,69
1074,243	61,08
1074,603	61,86
1074,964	62,72
1075,325	62,98
1075,685	62,59
1076,045	59,64
1076,406	62,29
1076,766	63,48
1077,126	58,63
1077,486	61,48
1077,846	64,66
1078,206	63,48
1078,566	61,9
1078,925	61,45
1079,285	62,21
1079,645	63,72
1080,004	62,73
1080,364	65,14
1080,723	62,57
1081,082	64,55
1081,442	64,43
1081,801	62,18
1082,16	64,08
1082,519	65,92
1082,878	64,17
1083,237	63,44
1083,595	62,84
1083,954	62,9
1084,313	61,86
1084,671	62,34
1085,03	65,56
1085,388	64,23
1085,746	65,2
1086,104	62,38
1086,463	62,14
1086,821	65,22
1087,179	63,25
1087,537	64,12
1087,894	63,44
1088,252	64,62
1088,61	62,1
1088,967	65,41
1089,325	63,97
1089,682	62,31
1090,04	64,44
1090,397	66,47
1090,754	66,94
1091,111	62,89
1091,469	61,92
1091,826	63,37
1092,182	63,62
1092,539	64,45
1092,896	64,53
1093,253	65,03
1093,609	60,65
1093,966	65,99
1094,322	62,7
1094,679	65,07
1095,035	61,42
1095,391	64,95
1095,748	67,22
1096,104	63,95
1096,46	61,57
1096,816	63,36
1097,171	64,01
1097,527	65,97
1097,883	66,14
1098,239	66,74
1098,594	65,05
1098,95	61,63
1099,305	66,69
1099,66	65,51
1100,016	60,74
1100,371	66,23
1100,726	63,76
1101,081	62,33
1101,436	65,57
1101,791	68,46
1102,146	64,41
1102,5	63,72
1102,855	66,45
1103,21	66,58
1103,564	67,37
1103,918	65
1104,273	65,22
1104,627	67,79
1104,981	68,69
1105,335	68,12
1105,69	64,03
1106,043	67,77
1106,397	65,77
1106,751	67,8
1107,105	70,04
1107,459	67,35
1107,812	70,04
1108,166	69,73
1108,519	67,02
1108,873	68,84
1109,226	64,62
1109,579	69,72
1109,932	69,44
1110,285	69,46
1110,638	68,79
1110,991	69,36
1111,344	72,39
1111,697	67,5
1112,05	69,92
1112,402	69,1
1112,755	66,21
1113,107	66,84
1113,46	72,12
1113,812	70,91
1114,164	74,77
1114,517	70,3
1114,869	171,67
1115,221	150,82
1115,573	176,92
1115,924	149,3
