Data from C_4_0_Relative__3__00056.txt Node

Date: Mon Jan 29 12:54:46 CET 2024
User: diatiterra
Spectrometer: HDX00911
Trigger mode: 0
Integration Time (sec): 6,000000E-3
Scans to average: 4
Nonlinearity correction enabled: false
Boxcar width: 0
Storing dark spectrum: false
XAxis mode: Wavelengths
Number of Pixels in Spectrum: 2068
>>>>>Begin Spectral Data<<<<<
194,468	30,49
195,025	38,19
195,581	34,88
196,138	26,32
196,694	36,28
197,251	38,99
197,807	36,58
198,363	34,99
198,919	37,26
199,474	40,67
200,03	30,68
200,586	28,48
201,141	37,18
201,696	34,84
202,251	36,86
202,806	33,06
203,361	33,97
203,916	32,2
204,471	30,39
205,025	41,29
205,58	34,23
206,134	34,5
206,688	32,54
207,242	32,27
207,796	38,57
208,35	34,17
208,904	41,84
209,457	37,42
210,011	35,52
210,564	33,26
211,117	37,91
211,67	37,83
212,223	32,98
212,776	33,67
213,329	39,39
213,881	35,93
214,434	35,84
214,986	35,37
215,538	34,96
216,09	37,7
216,642	33,4
217,194	38,12
217,746	40,68
218,297	31,12
218,849	31,55
219,4	30,27
219,951	33,11
220,502	37,47
221,053	38,03
221,604	35,83
222,155	34,25
222,705	37,16
223,256	38,18
223,806	39,2
224,356	37,61
224,906	36,06
225,456	37,68
226,006	35,68
226,556	37,58
227,106	41,07
227,655	39,02
228,204	33,19
228,754	35,93
229,303	33,41
229,852	39,52
230,401	34,68
230,949	33,63
231,498	37,78
232,047	37,47
232,595	34,52
233,143	37,22
233,691	38,11
234,239	35,94
234,787	34,55
235,335	37,42
235,883	32,56
236,43	33,88
236,978	29,86
237,525	29,91
238,072	37,47
238,619	39,49
239,166	39,29
239,713	32,92
240,26	34,44
240,806	37,88
241,353	33,33
241,899	38,55
242,445	39,18
242,991	32,97
243,537	35,6
244,083	33,4
244,629	37,92
245,174	30,35
245,72	38,22
246,265	37,3
246,81	30,7
247,355	40,71
247,9	35,23
248,445	28,57
248,99	40,66
249,534	36,51
250,079	38
250,623	31,64
251,168	37,58
251,712	35,48
252,256	35,27
252,8	41,18
253,343	30,57
253,887	37,02
254,43	33,05
254,974	37,65
255,517	35,18
256,06	35,54
256,603	30
257,146	37,82
257,689	32,68
258,232	34,92
258,774	32,43
259,317	35,44
259,859	37,13
260,401	40,04
260,943	39,78
261,485	35,56
262,027	28,01
262,569	36,75
263,11	36,75
263,652	32
264,193	35,36
264,734	30,05
265,275	38,97
265,816	25,93
266,357	35,15
266,898	32,65
267,438	36,7
267,979	36,73
268,519	39,82
269,059	30,14
269,6	35,44
270,14	36,71
270,68	34,96
271,219	36,08
271,759	37,08
272,298	28,73
272,838	35,78
273,377	38,07
273,916	33,78
274,455	33,41
274,994	34,58
275,533	36,26
276,072	36,05
276,61	40,09
277,149	31,8
277,687	37,3
278,225	32,35
278,763	38,24
279,301	30
279,839	35,91
280,377	29,86
280,914	34,8
281,452	41,06
281,989	35,16
282,526	36,27
283,064	35,28
283,601	35,27
284,137	41,19
284,674	36,41
285,211	33,99
285,747	36,04
286,284	32,65
286,82	37,59
287,356	34,44
287,892	35,15
288,428	29,83
288,964	42,59
289,5	36,18
290,035	32,23
290,571	35,37
291,106	35,64
291,641	36,36
292,176	40,83
292,711	40,35
293,246	38,53
293,781	39,05
294,315	35,16
294,85	35,18
295,384	31,69
295,918	32,67
296,453	35,38
296,987	31,75
297,52	35,09
298,054	29,08
298,588	36,74
299,121	34,37
299,655	34,39
300,188	33,26
300,721	39,77
301,254	37,21
301,787	36,8
302,32	33,87
302,853	34,36
303,385	42,51
303,918	31,63
304,45	35,75
304,982	38
305,514	35,88
306,046	36,98
306,578	36,61
307,11	34,27
307,641	38,84
308,173	35,68
308,704	37,28
309,236	40,39
309,767	36,47
310,298	40,13
310,829	39,44
311,359	39,25
311,89	35,21
312,421	28,92
312,951	33,95
313,481	32,95
314,012	31,77
314,542	34,12
315,072	36,18
315,601	34,23
316,131	35,93
316,661	38,16
317,19	33,03
317,72	29,52
318,249	30,93
318,778	37,99
319,307	37,65
319,836	36,72
320,365	37,33
320,893	39,79
321,422	34,1
321,95	33,11
322,479	31,83
323,007	31,64
323,535	37,21
324,063	36,64
324,591	35,22
325,118	42,64
325,646	31,13
326,173	30,59
326,701	40
327,228	40,91
327,755	32,78
328,282	36,1
328,809	36,87
329,336	30,72
329,862	29,55
330,389	34,25
330,915	30,23
331,441	34,27
331,968	32,05
332,494	39,75
333,02	28,82
333,545	35,81
334,071	28,79
334,597	35,82
335,122	39,42
335,648	34,28
336,173	30,15
336,698	36,24
337,223	33,62
337,748	33,19
338,272	38,49
338,797	24,95
339,322	34,62
339,846	31,28
340,37	33,67
340,894	29,18
341,419	37,39
341,942	27,59
342,466	29,85
342,99	34,85
343,514	34,38
344,037	23,8
344,56	30,16
345,084	35,23
345,607	26,9
346,13	30,92
346,653	32,2
347,175	31,76
347,698	33,79
348,221	31,1
348,743	32,71
349,265	30,96
349,787	30,6
350,309	25,13
350,831	27,41
351,353	32,53
351,875	28,86
352,397	33,17
352,918	30,03
353,439	32,17
353,961	32,27
354,482	28,11
355,003	32,9
355,524	32,93
356,044	31,85
356,565	32,67
357,086	29,99
357,606	34,41
358,126	35,16
358,646	32,51
359,167	31,89
359,687	34,12
360,206	32,05
360,726	32,75
361,246	31,62
361,765	31,85
362,285	35,49
362,804	31,8
363,323	32,72
363,842	34,85
364,361	33,16
364,88	32,24
365,398	32,11
365,917	30,38
366,435	29,31
366,954	35,66
367,472	34,53
367,99	39,04
368,508	32,05
369,026	33,17
369,544	32,2
370,061	30,92
370,579	32,73
371,096	32,25
371,613	31,74
372,131	36,59
372,648	28,96
373,165	35,95
373,681	31,71
374,198	32,97
374,715	33,16
375,231	36,54
375,747	30,23
376,264	31,95
376,78	33,43
377,296	32,13
377,812	34,91
378,327	32,34
378,843	34,68
379,359	30,29
379,874	33,02
380,389	32,1
380,905	30,88
381,42	31,28
381,935	31,34
382,449	33,28
382,964	29,58
383,479	32,17
383,993	28,82
384,508	29,68
385,022	29,32
385,536	27,66
386,05	27,67
386,564	28,34
387,078	28,83
387,592	29,21
388,105	28,22
388,619	27,44
389,132	28,22
389,645	28,92
390,158	27,93
390,671	29,33
391,184	27,78
391,697	27,98
392,21	25,89
392,722	26,34
393,235	26,11
393,747	25,67
394,259	25,87
394,771	25,6
395,283	24,2
395,795	24,83
396,307	24,18
396,818	25,47
397,33	25,91
397,841	23,83
398,353	21,17
398,864	24,27
399,375	25,36
399,886	23,77
400,397	22,8
400,907	22,18
401,418	21,7
401,928	20,09
402,439	21,09
402,949	22,93
403,459	20,44
403,969	19,79
404,479	19,99
404,989	20,28
405,498	18,02
406,008	18,2
406,517	19,1
407,027	17,72
407,536	17,24
408,045	16,21
408,554	15,98
409,063	15,02
409,572	15,86
410,08	14,93
410,589	14,49
411,097	13,59
411,606	13,09
412,114	14,06
412,622	12,84
413,13	12,23
413,638	12,78
414,145	12,75
414,653	12,08
415,16	11,46
415,668	11,74
416,175	11,5
416,682	11,2
417,189	10,81
417,696	10,59
418,203	10,36
418,71	10,89
419,216	10,53
419,723	10,45
420,229	10,48
420,735	9,65
421,242	9,91
421,748	9,19
422,254	9,6
422,759	9,76
423,265	9,28
423,771	9,39
424,276	9,24
424,781	9,48
425,287	9,26
425,792	8,79
426,297	8,98
426,802	8,82
427,306	9,04
427,811	9
428,316	8,95
428,82	8,45
429,324	8,81
429,829	9,25
430,333	8,79
430,837	8,86
431,34	8,76
431,844	8,56
432,348	8,35
432,851	8,32
433,355	8,73
433,858	8,76
434,361	8,44
434,864	8,43
435,367	8,37
435,87	8,56
436,373	8,43
436,876	8,49
437,378	8,29
437,88	8,42
438,383	8,51
438,885	8,11
439,387	8,39
439,889	8,64
440,391	8,74
440,892	8,21
441,394	8,55
441,896	8,33
442,397	8,44
442,898	8,46
443,399	8,23
443,9	8,42
444,401	8,35
444,902	8,28
445,403	8,44
445,903	8,38
446,404	8,68
446,904	8,29
447,405	8,58
447,905	8,69
448,405	8,73
448,905	8,54
449,404	8,42
449,904	8,74
450,404	8,6
450,903	8,74
451,403	8,45
451,902	9,17
452,401	8,98
452,9	8,66
453,399	9,07
453,898	8,75
454,396	8,82
454,895	8,83
455,393	9,08
455,892	9,09
456,39	8,99
456,888	9,33
457,386	8,92
457,884	8,82
458,382	9,2
458,879	9,33
459,377	9,09
459,874	9,04
460,372	9,05
460,869	9,38
461,366	9,25
461,863	9,52
462,36	8,94
462,857	8,96
463,353	8,98
463,85	8,95
464,346	9,09
464,843	8,89
465,339	9,04
465,835	9,2
466,331	9,03
466,827	9,27
467,323	9,03
467,818	9,04
468,314	8,92
468,809	9,19
469,305	9,19
469,8	9,03
470,295	9,42
470,79	9,15
471,285	9,26
471,78	9,1
472,274	9,2
472,769	9,17
473,263	8,92
473,758	9,22
474,252	9,39
474,746	8,88
475,24	9,27
475,734	9,45
476,228	9,18
476,721	8,95
477,215	9,23
477,708	9,16
478,202	9,44
478,695	9,35
479,188	9,3
479,681	9,42
480,174	9,37
480,667	9,03
481,159	9,21
481,652	9,22
482,144	9,25
482,637	9,22
483,129	9,33
483,621	9,27
484,113	9,07
484,605	9,34
485,097	9,43
485,588	9,12
486,08	9,54
486,571	9,49
487,063	9,42
487,554	9,66
488,045	9,37
488,536	9,76
489,027	9,66
489,518	9,88
490,008	9,64
490,499	9,62
490,989	9,58
491,48	10
491,97	9,84
492,46	9,83
492,95	9,9
493,44	10,16
493,93	10,17
494,419	10,14
494,909	10,21
495,398	10,31
495,888	10,15
496,377	10,22
496,866	10,44
497,355	10,44
497,844	10,63
498,333	11,05
498,821	11,13
499,31	11,14
499,798	10,98
500,287	11,29
500,775	11,39
501,263	11,51
501,751	11,69
502,239	11,8
502,727	11,85
503,215	12,15
503,702	12,03
504,19	12,44
504,677	12,41
505,164	12,64
505,651	12,76
506,139	12,99
506,625	13,37
507,112	13,62
507,599	13,69
508,086	14,04
508,572	13,87
509,058	14,4
509,545	14,79
510,031	15,07
510,517	15,12
511,003	15,3
511,489	15,51
511,974	15,95
512,46	16,4
512,946	16,41
513,431	16,44
513,916	16,82
514,401	17,19
514,887	17,49
515,371	17,75
515,856	18,22
516,341	18,62
516,826	18,89
517,31	18,81
517,795	19,71
518,279	19,64
518,763	19,67
519,247	20,12
519,731	20,49
520,215	20,74
520,699	20,88
521,182	21,37
521,666	21,79
522,149	22,26
522,633	22,59
523,116	22,68
523,599	23,14
524,082	23,21
524,565	23,98
525,048	23,89
525,53	24,15
526,013	24,65
526,495	24,59
526,978	24,98
527,46	25,11
527,942	25,71
528,424	25,28
528,906	25,82
529,388	26,03
529,87	26,2
530,351	26,18
530,833	26,55
531,314	26,57
531,795	26,95
532,277	26,92
532,758	27,03
533,238	27,21
533,719	27,29
534,2	27,79
534,681	27,62
535,161	27,81
535,642	28,24
536,122	28,13
536,602	28,04
537,082	27,95
537,562	27,92
538,042	27,98
538,522	28,26
539,001	28,34
539,481	28,43
539,96	28,35
540,44	28,32
540,919	28,26
541,398	28,68
541,877	28,83
542,356	28,54
542,835	28,68
543,313	28,89
543,792	28,47
544,27	28,81
544,749	29,1
545,227	28,78
545,705	28,68
546,183	28,88
546,661	28,68
547,139	28,66
547,616	29,3
548,094	28,91
548,571	29,17
549,049	29,07
549,526	29,33
550,003	29,18
550,48	29,18
550,957	29,34
551,434	29,39
551,911	29,21
552,387	29,14
552,864	29,18
553,34	29,23
553,817	29,34
554,293	29,36
554,769	29,24
555,245	29,52
555,721	29,29
556,197	29,46
556,672	29,35
557,148	29,26
557,623	29,4
558,099	29,13
558,574	29,22
559,049	29,06
559,524	28,91
559,999	28,95
560,474	29,05
560,948	29,05
561,423	29,05
561,897	28,84
562,372	28,93
562,846	28,68
563,32	28,48
563,794	28,56
564,268	28,16
564,742	28,33
565,216	28,4
565,69	28,3
566,163	27,88
566,636	27,61
567,11	27,67
567,583	27,61
568,056	27,59
568,529	27,4
569,002	27,22
569,475	27,17
569,947	26,91
570,42	26,4
570,892	26,47
571,365	26,18
571,837	26,13
572,309	26
572,781	25,7
573,253	25,7
573,725	25,34
574,197	25,37
574,668	25,09
575,14	24,95
575,611	24,88
576,082	24,6
576,554	24,76
577,025	24,35
577,496	24,3
577,967	24,2
578,437	24,06
578,908	23,97
579,379	23,74
579,849	23,51
580,319	23,15
580,79	23,35
581,26	22,99
581,73	23,13
582,2	22,96
582,669	22,81
583,139	22,94
583,609	22,62
584,078	22,77
584,548	22,54
585,017	22,24
585,486	22,19
585,955	22,17
586,424	22,17
586,893	21,98
587,362	21,81
587,83	21,81
588,299	21,69
588,767	21,52
589,236	21,53
589,704	21,33
590,172	21,59
590,64	21,34
591,108	21,35
591,576	21,23
592,043	21,12
592,511	21,17
592,978	21,14
593,446	20,9
593,913	20,97
594,38	20,86
594,847	20,82
595,314	20,66
595,781	20,86
596,248	20,87
596,715	20,82
597,181	20,82
597,647	20,82
598,114	20,72
598,58	20,51
599,046	20,33
599,512	20,48
599,978	20,3
600,444	20,54
600,91	20,34
601,375	20,41
601,841	20,36
602,306	20,17
602,771	20,19
603,236	20,1
603,702	19,99
604,167	19,96
604,631	19,87
605,096	19,84
605,561	19,73
606,025	19,62
606,49	19,7
606,954	19,63
607,418	19,42
607,882	19,25
608,347	19,29
608,81	18,97
609,274	19,18
609,738	19,12
610,202	18,98
610,665	18,81
611,128	18,77
611,592	18,74
612,055	18,5
612,518	18,48
612,981	18,42
613,444	18,19
613,907	18,21
614,369	17,85
614,832	17,92
615,294	17,89
615,757	17,59
616,219	17,81
616,681	17,63
617,143	17,42
617,605	17,54
618,067	17,26
618,529	17,26
618,99	17,27
619,452	17,01
619,913	17,12
620,375	16,94
620,836	16,82
621,297	16,8
621,758	16,87
622,219	16,75
622,68	16,68
623,14	16,57
623,601	16,42
624,061	16,54
624,522	16,48
624,982	16,28
625,442	16,48
625,902	16,25
626,362	16,4
626,822	16,35
627,282	16,26
627,742	16,3
628,201	16,3
628,661	16,13
629,12	16
629,579	16,01
630,038	16,08
630,497	16,2
630,956	16,05
631,415	16,09
631,874	16,03
632,332	16,12
632,791	15,94
633,249	15,88
633,708	15,76
634,166	15,78
634,624	15,69
635,082	15,61
635,54	15,63
635,998	15,54
636,455	15,35
636,913	15,27
637,37	15,12
637,828	15,17
638,285	15,04
638,742	14,78
639,199	14,76
639,656	14,62
640,113	14,41
640,57	14,48
641,027	14,21
641,483	14
641,94	14,17
642,396	13,84
642,852	13,89
643,309	13,67
643,765	13,54
644,221	13,32
644,676	13,31
645,132	13,08
645,588	13,08
646,043	12,95
646,499	12,79
646,954	12,68
647,409	12,57
647,864	12,5
648,319	12,39
648,774	12,25
649,229	12,17
649,684	12,13
650,139	11,96
650,593	11,85
651,047	11,85
651,502	11,78
651,956	11,68
652,41	11,7
652,864	11,63
653,318	11,54
653,772	11,53
654,225	11,38
654,679	11,32
655,133	11,34
655,586	11,24
656,039	11,32
656,492	11,05
656,946	11,05
657,399	11
657,851	10,86
658,304	10,71
658,757	10,67
659,209	10,62
659,662	10,48
660,114	10,4
660,567	10,26
661,019	10,26
661,471	10,15
661,923	10,09
662,375	9,94
662,826	9,86
663,278	9,88
663,73	9,72
664,181	9,5
664,632	9,55
665,084	9,51
665,535	9,42
665,986	9,44
666,437	9,3
666,888	9,38
667,338	9,24
667,789	9,24
668,24	9,3
668,69	9,3
669,14	9,25
669,591	9,2
670,041	9,21
670,491	9,24
670,941	9,23
671,391	9,37
671,84	9,4
672,29	9,52
672,74	9,51
673,189	9,52
673,638	9,59
674,088	9,71
674,537	9,68
674,986	9,8
675,435	9,9
675,883	10,02
676,332	10,08
676,781	9,99
677,229	10,22
677,678	10,36
678,126	10,45
678,574	10,53
679,022	10,72
679,47	10,88
679,918	10,96
680,366	11,08
680,814	11,12
681,261	11,17
681,709	11,34
682,156	11,55
682,604	11,76
683,051	11,8
683,498	12
683,945	12,1
684,392	12,24
684,839	12,38
685,286	12,56
685,732	12,75
686,179	12,85
686,625	13
687,071	13,26
687,518	13,5
687,964	13,66
688,41	14,07
688,856	14,15
689,301	14,54
689,747	14,81
690,193	15,15
690,638	15,52
691,084	15,86
691,529	16,2
691,974	16,65
692,419	17,11
692,864	17,7
693,309	18,13
693,754	18,53
694,199	19
694,643	19,39
695,088	19,93
695,532	20,61
695,977	21,05
696,421	21,65
696,865	21,99
697,309	22,73
697,753	23,09
698,197	23,54
698,64	23,92
699,084	24,57
699,527	25,09
699,971	25,46
700,414	26
700,857	26,4
701,3	26,84
701,743	27,42
702,186	27,89
702,629	28,18
703,072	28,46
703,515	28,77
703,957	29,37
704,399	29,62
704,842	30,19
705,284	30,45
705,726	30,81
706,168	31,06
706,61	31,52
707,052	31,86
707,494	32,17
707,935	32,36
708,377	32,57
708,818	33,03
709,26	33,38
709,701	33,43
710,142	33,91
710,583	34,26
711,024	34,51
711,465	34,58
711,905	34,95
712,346	35,37
712,787	35,56
713,227	35,71
713,667	35,97
714,108	36,28
714,548	36,43
714,988	36,77
715,428	37,05
715,868	37,2
716,307	37,29
716,747	37,7
717,186	37,85
717,626	38,01
718,065	38,09
718,504	38,52
718,944	38,86
719,383	38,73
719,822	38,97
720,261	39,19
720,699	39,3
721,138	39,51
721,576	39,56
722,015	39,92
722,453	40,04
722,892	39,91
723,33	40,02
723,768	40,33
724,206	40,46
724,644	40,56
725,081	40,74
725,519	40,98
725,957	40,94
726,394	41,03
726,832	41,22
727,269	41,29
727,706	41,48
728,143	41,48
728,58	41,4
729,017	41,93
729,454	41,7
729,89	41,81
730,327	41,88
730,764	41,91
731,2	42,08
731,636	41,99
732,072	42,16
732,509	42,16
732,945	42,13
733,38	42,26
733,816	42,18
734,252	42,43
734,688	42,29
735,123	42,48
735,559	42,49
735,994	42,5
736,429	42,72
736,864	42,64
737,299	42,41
737,734	42,41
738,169	42,75
738,604	42,68
739,038	42,66
739,473	42,6
739,907	42,6
740,342	42,72
740,776	42,67
741,21	42,52
741,644	42,6
742,078	42,67
742,512	42,49
742,946	42,57
743,379	42,25
743,813	42,58
744,246	42,68
744,68	42,54
745,113	42,41
745,546	42,43
745,979	42,47
746,412	42,44
746,845	42,32
747,278	42,37
747,711	42,54
748,143	42,53
748,576	42,37
749,008	42,15
749,441	42,15
749,873	42,21
750,305	42,11
750,737	42,16
751,169	42,13
751,601	42,28
752,032	41,97
752,464	42,15
752,896	41,91
753,327	41,88
753,758	41,83
754,19	41,85
754,621	41,84
755,052	41,72
755,483	41,72
755,914	41,58
756,344	41,66
756,775	41,6
757,206	41,34
757,636	41,59
758,066	41,65
758,497	41,47
758,927	41,24
759,357	41,53
759,787	41,47
760,217	41,52
760,647	41,26
761,076	41,48
761,506	40,99
761,935	41,28
762,365	41,11
762,794	41,36
763,223	40,96
763,653	41,08
764,082	41,1
764,51	40,94
764,939	40,85
765,368	40,87
765,797	40,85
766,225	40,88
766,654	40,79
767,082	40,88
767,51	40,88
767,938	40,85
768,367	40,93
768,795	40,82
769,222	40,68
769,65	40,62
770,078	40,76
770,505	40,66
770,933	40,65
771,36	40,4
771,788	40,67
772,215	40,5
772,642	40,7
773,069	40,51
773,496	40,59
773,923	40,53
774,349	40,6
774,776	40,46
775,203	40,57
775,629	40,49
776,055	40,22
776,482	40,33
776,908	40,32
777,334	40,35
777,76	40,33
778,186	40,34
778,611	40,19
779,037	40,4
779,463	40,23
779,888	40,11
780,314	40,28
780,739	40,28
781,164	40,13
781,589	40,12
782,014	40,07
782,439	40,1
782,864	40,27
783,289	40,08
783,713	40,18
784,138	39,98
784,562	40,1
784,987	39,91
785,411	40,09
785,835	40,2
786,259	40,06
786,683	40,18
787,107	39,99
787,531	40,23
787,954	40,06
788,378	39,93
788,802	39,72
789,225	40,01
789,648	39,86
790,071	39,94
790,495	39,85
790,918	39,95
791,34	39,78
791,763	39,73
792,186	40,14
792,609	39,93
793,031	39,79
793,454	39,76
793,876	39,75
794,298	39,85
794,721	39,84
795,143	39,68
795,565	39,82
795,986	39,72
796,408	39,78
796,83	39,76
797,252	39,92
797,673	39,68
798,094	39,79
798,516	39,76
798,937	39,75
799,358	39,62
799,779	39,84
800,2	39,71
800,621	39,56
801,042	39,82
801,462	39,75
801,883	39,57
802,303	39,69
802,724	39,54
803,144	39,58
803,564	39,71
803,984	39,69
804,404	39,8
804,824	39,57
805,244	39,5
805,664	39,5
806,084	39,53
806,503	39,73
806,923	39,53
807,342	39,71
807,761	39,5
808,18	39,59
808,599	39,63
809,018	39,5
809,437	39,72
809,856	39,62
810,275	39,48
810,693	39,69
811,112	39,66
811,53	39,64
811,949	39,6
812,367	39,51
812,785	39,53
813,203	39,48
813,621	39,53
814,039	39,5
814,457	39,47
814,874	39,6
815,292	39,51
815,709	39,4
816,127	39,61
816,544	39,65
816,961	39,25
817,378	39,64
817,795	39,51
818,212	39,37
818,629	39,37
819,046	39,62
819,462	39,43
819,879	39,5
820,295	39,26
820,712	39,39
821,128	39,5
821,544	39,3
821,96	39,36
822,376	39,37
822,792	39,44
823,208	39,44
823,624	39,51
824,039	39,52
824,455	39,38
824,87	39,28
825,286	39,54
825,701	39,41
826,116	39,29
826,531	39,13
826,946	39,56
827,361	39,24
827,776	39,4
828,19	39,04
828,605	39,61
829,02	39,29
829,434	39,24
829,848	39,24
830,263	39,36
830,677	39,08
831,091	39,33
831,505	39,3
831,919	39,42
832,332	39,19
832,746	39,28
833,16	39,13
833,573	39,03
833,987	39,26
834,4	39,12
834,813	39,29
835,226	39,29
835,639	39,29
836,052	39,07
836,465	39,24
836,878	39,32
837,29	39,09
837,703	39,26
838,116	39,15
838,528	39,16
838,94	39,26
839,352	39,17
839,765	39,12
840,177	39,09
840,589	39,27
841	39,11
841,412	39,31
841,824	38,92
842,235	38,84
842,647	38,99
843,058	39,09
843,47	38,95
843,881	39,24
844,292	39,29
844,703	39,28
845,114	39,04
845,525	39,28
845,935	39,01
846,346	39,11
846,757	39,05
847,167	39,15
847,577	38,87
847,988	39,17
848,398	39,16
848,808	39
849,218	39,42
849,628	39,11
850,038	39,29
850,448	39,05
850,857	39,15
851,267	38,73
851,676	38,88
852,086	39,14
852,495	39,24
852,904	38,92
853,313	39
853,722	39,15
854,131	39,11
854,54	39,05
854,949	39,03
855,357	38,8
855,766	38,79
856,174	39,04
856,583	38,85
856,991	39,25
857,399	38,99
857,807	38,99
858,215	39,07
858,623	38,72
859,031	38,93
859,439	38,99
859,846	39,06
860,254	38,75
860,661	38,88
861,069	39,02
861,476	38,75
861,883	38,92
862,29	39,01
862,697	38,86
863,104	38,9
863,511	38,78
863,918	38,92
864,325	38,7
864,731	38,9
865,138	38,85
865,544	38,91
865,95	38,81
866,357	38,89
866,763	38,9
867,169	38,77
867,575	38,78
867,98	38,69
868,386	38,75
868,792	39,04
869,197	38,88
869,603	38,87
870,008	38,77
870,414	38,84
870,819	38,94
871,224	38,66
871,629	38,94
872,034	38,92
872,439	38,62
872,844	38,82
873,248	38,67
873,653	38,88
874,057	38,66
874,462	38,88
874,866	38,85
875,27	38,67
875,674	38,79
876,078	38,84
876,482	38,87
876,886	38,84
877,29	38,96
877,694	38,66
878,097	38,78
878,501	39,03
878,904	38,75
879,308	38,76
879,711	38,85
880,114	38,95
880,517	38,71
880,92	38,87
881,323	38,61
881,726	38,69
882,128	38,47
882,531	38,49
882,934	38,78
883,336	38,61
883,738	38,73
884,141	38,97
884,543	38,53
884,945	38,72
885,347	38,91
885,749	38,42
886,151	38,62
886,552	38,84
886,954	38,52
887,355	38,67
887,757	38,58
888,158	38,36
888,56	38,51
888,961	38,52
889,362	38,68
889,763	38,61
890,164	38,65
890,565	38,71
890,965	38,62
891,366	38,5
891,767	38,56
892,167	38,47
892,567	38,75
892,968	38,44
893,368	38,64
893,768	38,61
894,168	38,84
894,568	38,67
894,968	38,61
895,368	38,79
895,767	38,86
896,167	38,45
896,566	38,55
896,966	38,57
897,365	38,62
897,764	38,75
898,164	38,7
898,563	38,5
898,962	38,64
899,361	38,62
899,759	38,45
900,158	38,58
900,557	38,35
900,955	38,51
901,354	38,32
901,752	38,72
902,15	38,63
902,548	38,52
902,947	38,62
903,345	38,45
903,742	38,64
904,14	38,74
904,538	38,44
904,936	38,36
905,333	38,45
905,731	38,72
906,128	38,43
906,525	38,78
906,923	38,49
907,32	38,52
907,717	38,37
908,114	38,65
908,511	38,73
908,907	38,58
909,304	38,83
909,701	38,74
910,097	38,61
910,494	38,75
910,89	38,59
911,286	38,46
911,682	38,55
912,078	38,7
912,474	38,42
912,87	38,26
913,266	38,82
913,662	38,44
914,058	38,72
914,453	38,4
914,849	38,51
915,244	38,35
915,639	38,63
916,034	38,49
916,43	38,41
916,825	38,53
917,22	38,74
917,614	38,4
918,009	38,52
918,404	38,42
918,798	38,89
919,193	38,77
919,587	38,45
919,982	38,55
920,376	38,22
920,77	38,6
921,164	38,34
921,558	38,47
921,952	38,33
922,346	38,32
922,74	38,64
923,133	38,5
923,527	38,54
923,92	38,73
924,314	38,3
924,707	38,09
925,1	38,13
925,493	38,49
925,886	38,47
926,279	38,23
926,672	38,49
927,065	38,38
927,457	38,15
927,85	38,31
928,243	38,21
928,635	38,34
929,027	38,08
929,42	38,24
929,812	38,18
930,204	38,19
930,596	38,29
930,988	38,1
931,379	38,35
931,771	38,27
932,163	38,11
932,554	38,24
932,946	38,11
933,337	38,26
933,729	38,56
934,12	38,48
934,511	38,13
934,902	38,29
935,293	38,28
935,684	38,42
936,075	38,36
936,465	37,71
936,856	37,97
937,246	38,08
937,637	38,08
938,027	38,02
938,417	38,13
938,808	38,17
939,198	37,83
939,588	38,03
939,978	38,61
940,368	38,17
940,757	38,6
941,147	37,87
941,537	37,72
941,926	38,54
942,315	38,19
942,705	38,24
943,094	37,96
943,483	37,81
943,872	37,87
944,261	37,71
944,65	38,08
945,039	38,11
945,428	37,99
945,816	38,09
946,205	37,99
946,593	38,31
946,982	37,23
947,37	37,79
947,758	37,64
948,146	37,93
948,534	37,94
948,922	37,86
949,31	38,07
949,698	38,02
950,086	38,04
950,473	37,66
950,861	37,23
951,248	37,75
951,636	37,38
952,023	37,44
952,41	37,52
952,797	37,81
953,184	37,75
953,571	37,67
953,958	37,52
954,345	37,6
954,731	37,58
955,118	37,48
955,505	37,74
955,891	37,48
956,277	37,48
956,664	37,39
957,05	37,64
957,436	37,28
957,822	37,26
958,208	37,72
958,594	37,59
958,979	37,76
959,365	37,65
959,751	37,61
960,136	37,04
960,522	37,32
960,907	37,58
961,292	37,26
961,677	37,08
962,062	37,74
962,447	37,52
962,832	37,5
963,217	37,92
963,602	37,23
963,986	37,25
964,371	37,68
964,756	37,92
965,14	37,27
965,524	37,48
965,908	37,64
966,293	37,27
966,677	37,4
967,061	37,42
967,445	37,51
967,828	37,52
968,212	37,6
968,596	37,41
968,979	37,86
969,363	37,72
969,746	37,5
970,129	37,72
970,513	37,38
970,896	37,34
971,279	37,23
971,662	37,35
972,045	37,43
972,428	37,13
972,81	37,37
973,193	37,56
973,575	37,11
973,958	37,68
974,34	37,8
974,723	37,57
975,105	37,29
975,487	37,52
975,869	37,37
976,251	37,14
976,633	37,3
977,015	37,28
977,396	37,49
977,778	37,6
978,16	37,33
978,541	37,3
978,922	37,62
979,304	37,28
979,685	37,61
980,066	37,41
980,447	37,39
980,828	37,64
981,209	37,51
981,59	37,62
981,97	37,42
982,351	37,66
982,732	37,49
983,112	37,71
983,493	37,44
983,873	37,52
984,253	37,14
984,633	37,67
985,013	37,08
985,393	37,62
985,773	37,34
986,153	37,29
986,533	37,39
986,912	37,24
987,292	37,83
987,671	37,45
988,051	37,21
988,43	37,61
988,809	37,68
989,188	37,33
989,567	37,08
989,946	37,67
990,325	37,39
990,704	37,43
991,083	37,57
991,461	37,35
991,84	37,47
992,218	37,55
992,597	37,97
992,975	37,5
993,353	37,34
993,732	37,78
994,11	37,59
994,488	37,72
994,866	37,5
995,243	37,85
995,621	36,91
995,999	37,51
996,376	37,76
996,754	37,32
997,131	37,28
997,509	37,01
997,886	37,77
998,263	37,63
998,64	37,68
999,017	37,45
999,394	37,61
999,771	38
1000,148	37,68
1000,524	37,76
1000,901	37,65
1001,277	37,58
1001,654	37,6
1002,03	37,64
1002,406	37,09
1002,783	37,36
1003,159	37,3
1003,535	37,39
1003,911	37,4
1004,286	37,07
1004,662	37,56
1005,038	37,46
1005,414	37,51
1005,789	37,48
1006,164	37,56
1006,54	38,05
1006,915	37,97
1007,29	37,3
1007,665	37,89
1008,04	37,39
1008,415	37,73
1008,79	37,71
1009,165	37,46
1009,54	37,33
1009,914	37,28
1010,289	37,12
1010,663	37,92
1011,038	37,54
1011,412	38,06
1011,786	37,58
1012,16	37,76
1012,535	37,65
1012,909	37,46
1013,282	37,63
1013,656	37,51
1014,03	37,14
1014,404	37,21
1014,777	37,29
1015,151	37,82
1015,524	37,6
1015,897	37,27
1016,271	37,93
1016,644	37,8
1017,017	37,58
1017,39	37,32
1017,763	37,17
1018,136	37,91
1018,508	37,43
1018,881	37,89
1019,254	37,64
1019,626	37,17
1019,999	37,45
1020,371	37,26
1020,743	37,46
1021,116	37,59
1021,488	37,15
1021,86	37,65
1022,232	37,72
1022,604	37,35
1022,975	37,94
1023,347	37,73
1023,719	37,23
1024,09	37,67
1024,462	37,46
1024,833	37,52
1025,204	37,34
1025,576	37,73
1025,947	37,59
1026,318	37,6
1026,689	37,43
1027,06	37,29
1027,431	37,54
1027,801	36,93
1028,172	37,32
1028,543	37,13
1028,913	37,44
1029,284	37,69
1029,654	37,42
1030,024	37,63
1030,394	37,67
1030,764	37,48
1031,135	37,64
1031,504	37,3
1031,874	37,66
1032,244	37,83
1032,614	38,06
1032,983	37,58
1033,353	37,41
1033,722	37,5
1034,092	37,7
1034,461	37,49
1034,83	37,68
1035,2	37,85
1035,569	37,77
1035,938	37,72
1036,307	37,61
1036,675	37,94
1037,044	37,21
1037,413	37,88
1037,781	37,69
1038,15	37,44
1038,518	37,1
1038,887	37,74
1039,255	37,41
1039,623	37,56
1039,991	37,56
1040,359	37,7
1040,727	37,75
1041,095	37,33
1041,463	37,53
1041,831	37,19
1042,198	37,82
1042,566	38,42
1042,933	37,09
1043,301	37,76
1043,668	37,62
1044,035	37,81
1044,402	37,97
1044,77	37,03
1045,137	37,14
1045,503	37,82
1045,87	37,72
1046,237	37,84
1046,604	37,52
1046,97	37,78
1047,337	37,73
1047,703	37,65
1048,07	37,03
1048,436	37,41
1048,802	37,42
1049,168	37,61
1049,534	37,6
1049,9	37,66
1050,266	37,96
1050,632	37,46
1050,998	37,11
1051,364	38,28
1051,729	37,94
1052,095	37,82
1052,46	37,88
1052,825	36,53
1053,191	37,21
1053,556	37,6
1053,921	36,53
1054,286	37,77
1054,651	38,45
1055,016	37,42
1055,381	37,52
1055,745	37,63
1056,11	37,68
1056,475	38,05
1056,839	37,43
1057,203	37,53
1057,568	37,57
1057,932	36,9
1058,296	37,45
1058,66	37,33
1059,024	38,2
1059,388	36,84
1059,752	38,03
1060,116	37,74
1060,48	37,67
1060,843	37,62
1061,207	36,85
1061,57	37,74
1061,934	36,71
1062,297	37,12
1062,66	37,63
1063,023	37,8
1063,386	37,13
1063,749	37,55
1064,112	37,58
1064,475	37,66
1064,838	38,39
1065,201	36,76
1065,563	37,2
1065,926	37,34
1066,288	37,76
1066,651	37,51
1067,013	36,99
1067,375	38,21
1067,737	36,87
1068,099	37,49
1068,461	37,42
1068,823	37,44
1069,185	37,39
1069,547	37,82
1069,909	36,42
1070,27	37,72
1070,632	37,98
1070,993	37,08
1071,355	37,29
1071,716	37,76
1072,077	37,05
1072,438	38,09
1072,799	36,92
1073,16	38,22
1073,521	37,47
1073,882	37,56
1074,243	37,29
1074,603	37,4
1074,964	36,78
1075,325	36,34
1075,685	38,06
1076,045	37,88
1076,406	37,87
1076,766	37,01
1077,126	37,36
1077,486	36,68
1077,846	38,32
1078,206	37,58
1078,566	37,25
1078,925	37,87
1079,285	37,26
1079,645	37,45
1080,004	37,27
1080,364	36,93
1080,723	37,53
1081,082	37,01
1081,442	36,69
1081,801	37,26
1082,16	38,09
1082,519	37
1082,878	38,82
1083,237	36,75
1083,595	37,21
1083,954	38,22
1084,313	37,85
1084,671	36,74
1085,03	37,56
1085,388	36,07
1085,746	37,71
1086,104	36,34
1086,463	38,97
1086,821	37,42
1087,179	37,5
1087,537	37,07
1087,894	37,53
1088,252	37,12
1088,61	38,02
1088,967	36,93
1089,325	37,3
1089,682	37,14
1090,04	36,76
1090,397	36,44
1090,754	36,48
1091,111	36,93
1091,469	37,64
1091,826	38,32
1092,182	37,35
1092,539	37,91
1092,896	37,39
1093,253	37,01
1093,609	36,56
1093,966	37,23
1094,322	35,91
1094,679	37,65
1095,035	37,3
1095,391	37,18
1095,748	37,9
1096,104	37,87
1096,46	37,1
1096,816	38,06
1097,171	39,65
1097,527	37,39
1097,883	38
1098,239	36,63
1098,594	38,17
1098,95	38,48
1099,305	38,9
1099,66	37,48
1100,016	36,98
1100,371	37,03
1100,726	37,12
1101,081	38,18
1101,436	38,79
1101,791	36,99
1102,146	37
1102,5	37,04
1102,855	37,76
1103,21	38,86
1103,564	37,93
1103,918	36,43
1104,273	37,17
1104,627	38,51
1104,981	35,32
1105,335	37,79
1105,69	37,67
1106,043	36,83
1106,397	39,17
1106,751	38,29
1107,105	38,69
1107,459	35,78
1107,812	39,11
1108,166	37,53
1108,519	36,73
1108,873	37,01
1109,226	37,63
1109,579	35,75
1109,932	36,07
1110,285	36,34
1110,638	37,3
1110,991	35,96
1111,344	36,16
1111,697	37,34
1112,05	39,16
1112,402	36,11
1112,755	37,08
1113,107	36,96
1113,46	38,73
1113,812	37,53
1114,164	38,63
1114,517	37,51
1114,869	48,31
1115,221	45,31
1115,573	44,33
1115,924	30,99
