Data from C_6_0_Relative__7__00070.txt Node

Date: Mon Jan 29 12:55:46 CET 2024
User: diatiterra
Spectrometer: HDX00911
Trigger mode: 0
Integration Time (sec): 6,000000E-3
Scans to average: 4
Nonlinearity correction enabled: false
Boxcar width: 0
Storing dark spectrum: false
XAxis mode: Wavelengths
Number of Pixels in Spectrum: 2068
>>>>>Begin Spectral Data<<<<<
194,468	39,63
195,025	40,2
195,581	33,72
196,138	19,3
196,694	43,29
197,251	38,46
197,807	38,72
198,363	33,05
198,919	34,26
199,474	41,56
200,03	35,32
200,586	33,26
201,141	37,82
201,696	41,51
202,251	34,62
202,806	32,44
203,361	35,02
203,916	34,97
204,471	34,47
205,025	38,71
205,58	37,14
206,134	31,21
206,688	34,71
207,242	33,55
207,796	32,45
208,35	36,22
208,904	35,71
209,457	36,99
210,011	29,81
210,564	36,8
211,117	35,4
211,67	38,43
212,223	32,76
212,776	36,29
213,329	40,61
213,881	33,68
214,434	33,53
214,986	35,6
215,538	38,94
216,09	36,57
216,642	31,05
217,194	41,67
217,746	40,25
218,297	36,91
218,849	38,41
219,4	37,16
219,951	33,33
220,502	36,62
221,053	30,25
221,604	31,67
222,155	37,24
222,705	35,07
223,256	39,26
223,806	38,57
224,356	32,26
224,906	39,2
225,456	36,21
226,006	40,45
226,556	35,28
227,106	38,84
227,655	37,74
228,204	31,19
228,754	40,04
229,303	36,92
229,852	39,52
230,401	32,43
230,949	41,54
231,498	36,67
232,047	34,26
232,595	37,03
233,143	35,9
233,691	39,75
234,239	37,5
234,787	38,64
235,335	35,05
235,883	35,94
236,43	36,36
236,978	35,42
237,525	35,71
238,072	36,38
238,619	36,68
239,166	35,32
239,713	35,82
240,26	37,55
240,806	40,26
241,353	38,85
241,899	40,31
242,445	36,08
242,991	32,97
243,537	29,74
244,083	40,46
244,629	33,69
245,174	35,37
245,72	40,67
246,265	38,69
246,81	34,31
247,355	44
247,9	32,82
248,445	34,12
248,99	39,01
249,534	34,69
250,079	37,78
250,623	39,86
251,168	30,65
251,712	33,98
252,256	36,56
252,8	36,6
253,343	38,86
253,887	37,02
254,43	32,62
254,974	35,76
255,517	33,48
256,06	38,63
256,603	31,59
257,146	37,12
257,689	32,9
258,232	35,83
258,774	37,87
259,317	36,34
259,859	33,49
260,401	37,23
260,943	35,11
261,485	36,67
262,027	37,86
262,569	37,75
263,11	34,62
263,652	32
264,193	39,26
264,734	30,73
265,275	37,56
265,816	30,99
266,357	41,04
266,898	27,17
267,438	33,26
267,979	30,53
268,519	38,95
269,059	33,64
269,6	35,89
270,14	28,6
270,68	35,38
271,219	35,86
271,759	35,28
272,298	29,4
272,838	30,96
273,377	39,09
273,916	37,36
274,455	29,84
274,994	33,26
275,533	32,1
276,072	37,55
276,61	37,89
277,149	31,55
277,687	35,47
278,225	35,52
278,763	35,52
279,301	32,22
279,839	32,04
280,377	34,6
280,914	43,62
281,452	39,45
281,989	35,82
282,526	36,05
283,064	33,47
283,601	32,95
284,137	34,29
284,674	32,52
285,211	35,51
285,747	33,65
286,284	32,42
286,82	35,08
287,356	39,51
287,892	31,52
288,428	28,97
288,964	34,35
289,5	34,38
290,035	35,1
290,571	30,49
291,106	29,7
291,641	39,77
292,176	36,43
292,711	35,96
293,246	39,91
293,781	34,54
294,315	33,92
294,85	37,61
295,384	30,56
295,918	34,22
296,453	30,42
296,987	28,2
297,52	37,06
298,054	31,32
298,588	31,09
299,121	31,49
299,655	30,77
300,188	27,33
300,721	36,74
301,254	36,99
301,787	35,84
302,32	37,79
302,853	32,6
303,385	33,48
303,918	29,4
304,45	28,51
304,982	35,11
305,514	26,85
306,046	30,2
306,578	29,98
307,11	41,26
307,641	32,37
308,173	33,64
308,704	33,26
309,236	31,63
309,767	32
310,298	34,81
310,829	33,57
311,359	31,07
311,89	34,99
312,421	27,13
312,951	35,81
313,481	32,95
314,012	27,52
314,542	32,71
315,072	32,91
315,601	31,76
316,131	41,88
316,661	34,54
317,19	32,81
317,72	26,9
318,249	30,02
318,778	32,11
319,307	33,65
319,836	30,48
320,365	31,34
320,893	38,5
321,422	28,11
321,95	31,78
322,479	36,34
323,007	31,64
323,535	37,67
324,063	33,57
324,591	30,97
325,118	32,75
325,646	34,2
326,173	35,16
326,701	39,76
327,228	30,45
327,755	23,68
328,282	33,69
328,809	29,8
329,336	29,1
329,862	39,32
330,389	31,49
330,915	28,86
331,441	30,54
331,968	25,3
332,494	35,75
333,02	29,25
333,545	30,78
334,071	31,03
334,597	32,93
335,122	32,07
335,648	31,7
336,173	27,98
336,698	30,73
337,223	29,28
337,748	29,41
338,272	26,78
338,797	23,64
339,322	33,48
339,846	22,98
340,37	33,92
340,894	28,06
341,419	28,78
341,942	25,15
342,466	30,69
342,99	34,44
343,514	33,12
344,037	27,2
344,56	29,96
345,084	31,63
345,607	26,71
346,13	25,57
346,653	30,3
347,175	28,62
347,698	30,84
348,221	26,63
348,743	29,93
349,265	27,65
349,787	28,83
350,309	26,32
350,831	29,14
351,353	29,09
351,875	26,68
352,397	31
352,918	28,16
353,439	30,24
353,961	27,9
354,482	26,09
355,003	24,71
355,524	28,35
356,044	28,34
356,565	27,05
357,086	31,48
357,606	25,36
358,126	29,53
358,646	30,38
359,167	29,87
359,687	26,89
360,206	27,77
360,726	24,93
361,246	31,47
361,765	26,4
362,285	26,95
362,804	33,56
363,323	27,25
363,842	26,7
364,361	25,67
364,88	26,18
365,398	24,08
365,917	28,55
366,435	24,04
366,954	25,56
367,472	24,26
367,99	27,76
368,508	24,9
369,026	26,68
369,544	23,78
370,061	25,44
370,579	23,56
371,096	27,75
371,613	24,23
372,131	27,5
372,648	24,97
373,165	25,33
373,681	26,05
374,198	24,4
374,715	23,49
375,231	28,38
375,747	24,63
376,264	22,39
376,78	25,54
377,296	24,17
377,812	25,34
378,327	25,39
378,843	26,16
379,359	22,78
379,874	24,87
380,389	22,2
380,905	26,21
381,42	24,88
381,935	23,26
382,449	22,68
382,964	22,98
383,479	22,61
383,993	22,65
384,508	22,42
385,022	21,6
385,536	22,81
386,05	21,44
386,564	19,93
387,078	20,61
387,592	20,89
388,105	21,35
388,619	19,61
389,132	21,53
389,645	23,09
390,158	21,55
390,671	20,47
391,184	21,44
391,697	19,37
392,21	19,46
392,722	19,34
393,235	19,77
393,747	18,39
394,259	20,88
394,771	18,87
395,283	19,35
395,795	18,96
396,307	17,98
396,818	19,48
397,33	19,45
397,841	17,62
398,353	16,47
398,864	16,36
399,375	16,67
399,886	18,06
400,397	15,76
400,907	15,94
401,418	15,72
401,928	14,35
402,439	14,72
402,949	15,67
403,459	15,73
403,969	14,97
404,479	14,14
404,989	13,36
405,498	14,04
406,008	13,51
406,517	13,41
407,027	13,63
407,536	12,28
408,045	11,82
408,554	10,83
409,063	10,47
409,572	11,85
410,08	10,72
410,589	10,85
411,097	9,99
411,606	10,65
412,114	10,27
412,622	9,36
413,13	9,76
413,638	9,48
414,145	9,33
414,653	8,82
415,16	8,1
415,668	9,21
416,175	8,07
416,682	8,06
417,189	7,89
417,696	7,64
418,203	7,68
418,71	7,35
419,216	7,38
419,723	7,48
420,229	7,89
420,735	6,66
421,242	6,97
421,748	7,11
422,254	7,51
422,759	6,83
423,265	6,71
423,771	6,56
424,276	7,03
424,781	6,92
425,287	6,56
425,792	6,76
426,297	6,44
426,802	6,32
427,306	6,48
427,811	6,34
428,316	6,43
428,82	6,6
429,324	6,51
429,829	6,55
430,333	5,85
430,837	6,6
431,34	6,24
431,844	5,97
432,348	6,06
432,851	6,17
433,355	6
433,858	6,07
434,361	6,11
434,864	5,94
435,367	6,16
435,87	5,82
436,373	6,18
436,876	6,28
437,378	6,14
437,88	5,77
438,383	6,63
438,885	5,97
439,387	6,08
439,889	6,14
440,391	6,02
440,892	6,27
441,394	6,16
441,896	6,12
442,397	5,82
442,898	5,9
443,399	6,16
443,9	6,02
444,401	5,98
444,902	5,81
445,403	6,31
445,903	6,23
446,404	5,81
446,904	6,21
447,405	5,97
447,905	5,75
448,405	6,15
448,905	5,79
449,404	6,08
449,904	5,94
450,404	5,89
450,903	6,03
451,403	6,18
451,902	6,18
452,401	6
452,9	5,78
453,399	6,06
453,898	6,4
454,396	6,4
454,895	6,23
455,393	6,19
455,892	6,19
456,39	5,98
456,888	6,38
457,386	6,23
457,884	6,34
458,382	6,15
458,879	6,01
459,377	6,24
459,874	6,1
460,372	6,42
460,869	6,23
461,366	6,23
461,863	6,24
462,36	6,17
462,857	6,24
463,353	6,26
463,85	6,38
464,346	6,07
464,843	6,32
465,339	6,17
465,835	6,21
466,331	6,3
466,827	6,23
467,323	6,25
467,818	6,3
468,314	6,09
468,809	6,23
469,305	6,11
469,8	6,3
470,295	6,01
470,79	6,26
471,285	6,13
471,78	6,25
472,274	6,29
472,769	6,3
473,263	6,38
473,758	6,19
474,252	6,53
474,746	6,57
475,24	6,4
475,734	6,46
476,228	6,07
476,721	6,19
477,215	6,33
477,708	6,51
478,202	6,47
478,695	6,33
479,188	6,14
479,681	6,51
480,174	6,51
480,667	6,47
481,159	6,18
481,652	6,53
482,144	6,53
482,637	6,27
483,129	6,3
483,621	6,75
484,113	6,45
484,605	6,57
485,097	6,69
485,588	6,47
486,08	6,28
486,571	6,64
487,063	6,69
487,554	6,73
488,045	6,42
488,536	6,66
489,027	6,52
489,518	6,74
490,008	6,63
490,499	6,74
490,989	6,58
491,48	6,89
491,97	6,91
492,46	7
492,95	7,05
493,44	6,76
493,93	6,88
494,419	7,04
494,909	6,95
495,398	6,83
495,888	6,98
496,377	7,09
496,866	7,17
497,355	6,96
497,844	7,16
498,333	7,38
498,821	7,48
499,31	7,47
499,798	7,51
500,287	7,59
500,775	7,86
501,263	7,67
501,751	7,76
502,239	8,23
502,727	7,88
503,215	8,14
503,702	8,21
504,19	8,42
504,677	8,5
505,164	8,59
505,651	8,8
506,139	8,98
506,625	8,93
507,112	9,23
507,599	9,18
508,086	9,54
508,572	9,64
509,058	9,59
509,545	9,92
510,031	10,05
510,517	10,51
511,003	10,46
511,489	10,8
511,974	10,77
512,46	11,23
512,946	11,49
513,431	11,45
513,916	11,56
514,401	11,98
514,887	12,34
515,371	12,48
515,856	12,84
516,341	13,15
516,826	13,5
517,31	13,73
517,795	13,86
518,279	14,09
518,763	14,24
519,247	14,74
519,731	15,06
520,215	15,27
520,699	15,6
521,182	15,93
521,666	15,95
522,149	16,62
522,633	16,76
523,116	17,04
523,599	17,31
524,082	17,52
524,565	18,06
525,048	18,37
525,53	18,36
526,013	18,78
526,495	19,02
526,978	19,01
527,46	19,48
527,942	19,57
528,424	19,91
528,906	20,1
529,388	20,33
529,87	20,45
530,351	20,88
530,833	21,06
531,314	21,12
531,795	21,21
532,277	21,2
532,758	21,51
533,238	21,38
533,719	21,73
534,2	22
534,681	22
535,161	21,72
535,642	22
536,122	21,93
536,602	22,28
537,082	22,51
537,562	22,61
538,042	22,25
538,522	22,59
539,001	22,55
539,481	22,76
539,96	22,92
540,44	22,95
540,919	22,84
541,398	22,87
541,877	22,89
542,356	23
542,835	23,09
543,313	23,13
543,792	22,87
544,27	23,2
544,749	23,07
545,227	23,52
545,705	23,48
546,183	23,34
546,661	23,23
547,139	23,37
547,616	23,69
548,094	23,25
548,571	23,89
549,049	23,55
549,526	23,76
550,003	23,36
550,48	23,57
550,957	23,5
551,434	23,57
551,911	23,66
552,387	23,9
552,864	23,37
553,34	23,72
553,817	23,55
554,293	23,59
554,769	23,66
555,245	23,78
555,721	23,62
556,197	23,84
556,672	23,55
557,148	23,62
557,623	23,53
558,099	23,33
558,574	23,68
559,049	23,42
559,524	23,34
559,999	23,22
560,474	23,4
560,948	23
561,423	23,25
561,897	23,05
562,372	23,06
562,846	22,55
563,32	22,9
563,794	22,71
564,268	22,53
564,742	22,3
565,216	22,61
565,69	22,14
566,163	21,91
566,636	21,95
567,11	21,92
567,583	21,64
568,056	21,37
568,529	21,41
569,002	21,18
569,475	21,04
569,947	20,79
570,42	20,55
570,892	20,49
571,365	20,39
571,837	20,29
572,309	20,11
572,781	19,89
573,253	19,7
573,725	19,41
574,197	19,33
574,668	19,09
575,14	18,95
575,611	18,92
576,082	18,75
576,554	18,72
577,025	18,51
577,496	18,42
577,967	18,13
578,437	17,99
578,908	17,9
579,379	17,62
579,849	17,69
580,319	17,61
580,79	17,4
581,26	17,36
581,73	17,19
582,2	17,2
582,669	16,93
583,139	17,07
583,609	16,71
584,078	16,67
584,548	16,47
585,017	16,49
585,486	16,25
585,955	16,33
586,424	16,03
586,893	16,27
587,362	16,08
587,83	15,87
588,299	15,96
588,767	15,83
589,236	15,8
589,704	15,71
590,172	15,6
590,64	15,6
591,108	15,47
591,576	15,44
592,043	15,28
592,511	15,27
592,978	15,26
593,446	15,23
593,913	15,28
594,38	14,97
594,847	14,99
595,314	14,98
595,781	15,05
596,248	14,9
596,715	14,83
597,181	14,99
597,647	14,88
598,114	14,81
598,58	14,8
599,046	14,82
599,512	14,74
599,978	14,84
600,444	14,74
600,91	14,59
601,375	14,6
601,841	14,47
602,306	14,57
602,771	14,4
603,236	14,53
603,702	14,25
604,167	14,27
604,631	14,09
605,096	14,34
605,561	14,28
606,025	14,16
606,49	14,04
606,954	13,91
607,418	13,89
607,882	13,96
608,347	13,82
608,81	13,65
609,274	13,52
609,738	13,4
610,202	13,34
610,665	13,27
611,128	13,24
611,592	13,07
612,055	13,01
612,518	12,92
612,981	13,01
613,444	12,79
613,907	12,85
614,369	12,7
614,832	12,47
615,294	12,41
615,757	12,4
616,219	12,32
616,681	12,09
617,143	12,18
617,605	12,06
618,067	12,05
618,529	11,86
618,99	11,92
619,452	11,81
619,913	11,73
620,375	11,8
620,836	11,73
621,297	11,7
621,758	11,65
622,219	11,55
622,68	11,6
623,14	11,49
623,601	11,52
624,061	11,4
624,522	11,25
624,982	11,32
625,442	11,31
625,902	11,42
626,362	11,34
626,822	11,13
627,282	11,24
627,742	11,24
628,201	11,12
628,661	11,11
629,12	11,11
629,579	11,02
630,038	11,14
630,497	11,15
630,956	11,15
631,415	11,09
631,874	11,06
632,332	10,98
632,791	10,94
633,249	10,89
633,708	10,85
634,166	10,83
634,624	10,81
635,082	10,77
635,54	10,78
635,998	10,58
636,455	10,68
636,913	10,5
637,37	10,33
637,828	10,46
638,285	10,37
638,742	10,08
639,199	10
639,656	9,99
640,113	9,9
640,57	9,89
641,027	9,82
641,483	9,68
641,94	9,62
642,396	9,46
642,852	9,36
643,309	9,33
643,765	9,25
644,221	9,12
644,676	9,06
645,132	8,86
645,588	8,79
646,043	8,77
646,499	8,69
646,954	8,68
647,409	8,5
647,864	8,45
648,319	8,3
648,774	8,27
649,229	8,23
649,684	8,15
650,139	8,19
650,593	8,03
651,047	8,06
651,502	8,02
651,956	7,97
652,41	7,9
652,864	7,86
653,318	7,93
653,772	7,78
654,225	7,84
654,679	7,74
655,133	7,69
655,586	7,69
656,039	7,72
656,492	7,51
656,946	7,6
657,399	7,5
657,851	7,5
658,304	7,38
658,757	7,31
659,209	7,3
659,662	7,25
660,114	7,17
660,567	7,13
661,019	7,15
661,471	7
661,923	7
662,375	6,94
662,826	6,97
663,278	6,94
663,73	6,82
664,181	6,86
664,632	6,77
665,084	6,78
665,535	6,7
665,986	6,75
666,437	6,7
666,888	6,79
667,338	6,8
667,789	6,78
668,24	6,78
668,69	6,78
669,14	6,74
669,591	6,83
670,041	6,81
670,491	6,93
670,941	6,93
671,391	6,96
671,84	7,01
672,29	7,08
672,74	7,14
673,189	7,14
673,638	7,23
674,088	7,3
674,537	7,4
674,986	7,53
675,435	7,47
675,883	7,66
676,332	7,75
676,781	7,81
677,229	7,97
677,678	8,09
678,126	8,18
678,574	8,25
679,022	8,34
679,47	8,43
679,918	8,56
680,366	8,8
680,814	8,76
681,261	8,87
681,709	9,03
682,156	9,08
682,604	9,17
683,051	9,45
683,498	9,44
683,945	9,63
684,392	9,66
684,839	9,71
685,286	9,84
685,732	10,01
686,179	10,05
686,625	10,23
687,071	10,36
687,518	10,37
687,964	10,53
688,41	10,68
688,856	10,81
689,301	11,06
689,747	11,21
690,193	11,42
690,638	11,8
691,084	12,11
691,529	12,24
691,974	12,67
692,419	13,04
692,864	13,35
693,309	13,75
693,754	14,3
694,199	14,68
694,643	15,03
695,088	15,52
695,532	16,04
695,977	16,55
696,421	17,08
696,865	17,53
697,309	17,93
697,753	18,59
698,197	19,03
698,64	19,47
699,084	19,96
699,527	20,69
699,971	21,08
700,414	21,55
700,857	22,07
701,3	22,55
701,743	22,95
702,186	23,54
702,629	23,87
703,072	24,35
703,515	24,74
703,957	25,32
704,399	25,73
704,842	26,1
705,284	26,5
705,726	27,01
706,168	27,37
706,61	27,68
707,052	28,1
707,494	28,5
707,935	28,9
708,377	29,31
708,818	29,58
709,26	30,08
709,701	30,15
710,142	30,69
710,583	31,13
711,024	31,29
711,465	31,51
711,905	32,1
712,346	32,46
712,787	32,68
713,227	33,07
713,667	33,33
714,108	33,67
714,548	33,88
714,988	34,3
715,428	34,52
715,868	35,02
716,307	35,03
716,747	35,42
717,186	35,39
717,626	35,91
718,065	36,01
718,504	36,39
718,944	36,87
719,383	37,05
719,822	37,24
720,261	37,4
720,699	37,44
721,138	37,96
721,576	38,06
722,015	38,31
722,453	38,52
722,892	38,64
723,33	38,82
723,768	39,01
724,206	39,21
724,644	39,42
725,081	39,55
725,519	39,9
725,957	40,01
726,394	40,07
726,832	40,09
727,269	40,33
727,706	40,62
728,143	40,55
728,58	40,6
729,017	40,91
729,454	41,02
729,89	41,19
730,327	40,98
730,764	41,22
731,2	41,54
731,636	41,44
732,072	41,76
732,509	41,48
732,945	41,57
733,38	41,65
733,816	41,97
734,252	42,06
734,688	41,99
735,123	42,01
735,559	41,95
735,994	42,18
736,429	42,37
736,864	42,25
737,299	42,17
737,734	42,43
738,169	42,38
738,604	42,4
739,038	42,38
739,473	42,52
739,907	42,56
740,342	42,32
740,776	42,4
741,21	42,55
741,644	42,36
742,078	42,15
742,512	42,78
742,946	42,35
743,379	42,31
743,813	42,63
744,246	42,42
744,68	42,54
745,113	42,37
745,546	42,5
745,979	42,47
746,412	42,38
746,845	42,55
747,278	42,37
747,711	42,53
748,143	42,42
748,576	42,39
749,008	42,27
749,441	42,39
749,873	42,11
750,305	42,2
750,737	42,04
751,169	42,13
751,601	42,08
752,032	42,09
752,464	42,12
752,896	41,94
753,327	42,1
753,758	41,78
754,19	41,88
754,621	41,75
755,052	41,78
755,483	41,93
755,914	41,69
756,344	41,66
756,775	41,73
757,206	41,63
757,636	41,66
758,066	41,66
758,497	41,34
758,927	41,54
759,357	41,51
759,787	41,42
760,217	41,38
760,647	41,24
761,076	41,64
761,506	41,23
761,935	41,32
762,365	41,36
762,794	41,18
763,223	40,94
763,653	41,07
764,082	41,1
764,51	40,98
764,939	41,01
765,368	40,85
765,797	41,14
766,225	40,82
766,654	40,89
767,082	40,79
767,51	41
767,938	40,71
768,367	41,04
768,795	40,85
769,222	40,62
769,65	40,68
770,078	40,79
770,505	40,6
770,933	40,59
771,36	40,66
771,788	40,77
772,215	40,54
772,642	40,62
773,069	40,51
773,496	40,58
773,923	40,54
774,349	40,74
774,776	40,61
775,203	40,48
775,629	40,32
776,055	40,31
776,482	40,17
776,908	40,53
777,334	40,35
777,76	40,24
778,186	40,27
778,611	40,29
779,037	40,24
779,463	40,27
779,888	40,02
780,314	40,16
780,739	40,27
781,164	40,42
781,589	40,15
782,014	39,94
782,439	40,1
782,864	40,19
783,289	40,32
783,713	40,2
784,138	39,85
784,562	40,14
784,987	40,08
785,411	40,09
785,835	40,04
786,259	40,06
786,683	40,01
787,107	40,07
787,531	40,21
787,954	39,86
788,378	39,92
788,802	39,83
789,225	39,98
789,648	39,81
790,071	39,88
790,495	39,9
790,918	39,95
791,34	40,09
791,763	39,75
792,186	40,15
792,609	39,79
793,031	39,82
793,454	39,8
793,876	39,79
794,298	39,68
794,721	39,58
795,143	39,56
795,565	39,78
795,986	39,67
796,408	39,78
796,83	39,72
797,252	39,64
797,673	39,6
798,094	39,66
798,516	39,78
798,937	39,58
799,358	39,62
799,779	39,71
800,2	39,55
800,621	39,71
801,042	39,67
801,462	39,67
801,883	39,75
802,303	39,43
802,724	39,51
803,144	39,68
803,564	39,66
803,984	39,65
804,404	39,46
804,824	39,47
805,244	39,44
805,664	39,63
806,084	39,63
806,503	39,62
806,923	39,49
807,342	39,53
807,761	39,46
808,18	39,76
808,599	39,58
809,018	39,6
809,437	39,52
809,856	39,4
810,275	39,44
810,693	39,53
811,112	39,72
811,53	39,54
811,949	39,61
812,367	39,44
812,785	39,53
813,203	39,4
813,621	39,47
814,039	39,46
814,457	39,38
814,874	39,29
815,292	39,52
815,709	39,52
816,127	39,36
816,544	39,58
816,961	39,53
817,378	39,55
817,795	39,46
818,212	39,49
818,629	39,59
819,046	39,52
819,462	39,41
819,879	39,42
820,295	39,6
820,712	39,42
821,128	39,39
821,544	39,12
821,96	39,44
822,376	39,39
822,792	39,35
823,208	39,25
823,624	39,46
824,039	39,33
824,455	39,3
824,87	39,24
825,286	39,26
825,701	39,32
826,116	39,37
826,531	39,32
826,946	39,34
827,361	39,17
827,776	39,37
828,19	39,06
828,605	39,43
829,02	39,19
829,434	39,29
829,848	39,33
830,263	39,23
830,677	39,25
831,091	39,48
831,505	39,21
831,919	39,1
832,332	39,06
832,746	39,11
833,16	39,2
833,573	39,01
833,987	39,48
834,4	39,06
834,813	39,17
835,226	39,36
835,639	39,24
836,052	39,29
836,465	39,24
836,878	39,26
837,29	39,14
837,703	39,11
838,116	39,37
838,528	39,12
838,94	39,02
839,352	39,3
839,765	38,93
840,177	39
840,589	39,02
841	39,14
841,412	39,14
841,824	39,05
842,235	38,93
842,647	38,94
843,058	38,92
843,47	39,12
843,881	39,07
844,292	39,06
844,703	38,97
845,114	39,03
845,525	39,03
845,935	39,13
846,346	39,25
846,757	39,01
847,167	39,01
847,577	38,93
847,988	39,12
848,398	39,11
848,808	39,05
849,218	39,13
849,628	39,03
850,038	38,94
850,448	39
850,857	38,79
851,267	38,81
851,676	38,92
852,086	38,9
852,495	39
852,904	38,96
853,313	38,87
853,722	39,05
854,131	39,02
854,54	38,95
854,949	38,95
855,357	39,15
855,766	38,89
856,174	38,88
856,583	38,94
856,991	39,21
857,399	38,99
857,807	38,61
858,215	39,03
858,623	38,91
859,031	38,82
859,439	38,87
859,846	38,74
860,254	38,81
860,661	38,87
861,069	38,91
861,476	39,12
861,883	38,91
862,29	38,96
862,697	38,87
863,104	38,79
863,511	38,47
863,918	38,88
864,325	39,03
864,731	38,69
865,138	38,77
865,544	38,81
865,95	38,58
866,357	38,78
866,763	38,64
867,169	38,68
867,575	38,71
867,98	38,83
868,386	38,72
868,792	39
869,197	38,63
869,603	38,57
870,008	38,73
870,414	38,91
870,819	38,76
871,224	38,6
871,629	38,82
872,034	38,58
872,439	38,72
872,844	38,74
873,248	38,5
873,653	38,62
874,057	38,69
874,462	38,68
874,866	38,66
875,27	38,84
875,674	38,68
876,078	38,74
876,482	38,73
876,886	38,78
877,29	38,73
877,694	38,64
878,097	38,8
878,501	38,74
878,904	38,41
879,308	38,67
879,711	38,84
880,114	38,83
880,517	38,53
880,92	38,48
881,323	38,62
881,726	38,79
882,128	38,52
882,531	38,53
882,934	38,47
883,336	38,46
883,738	38,86
884,141	38,65
884,543	38,46
884,945	38,68
885,347	38,79
885,749	38,34
886,151	38,44
886,552	38,67
886,954	38,44
887,355	38,39
887,757	38,4
888,158	38,4
888,56	38,52
888,961	38,52
889,362	38,62
889,763	38,46
890,164	38,55
890,565	38,58
890,965	38,48
891,366	38,41
891,767	38,73
892,167	38,43
892,567	38,55
892,968	38,5
893,368	38,38
893,768	38,42
894,168	38,57
894,568	38,47
894,968	38,39
895,368	38,58
895,767	38,53
896,167	38,24
896,566	38,78
896,966	38,36
897,365	38,61
897,764	38,46
898,164	38,15
898,563	38,62
898,962	38,25
899,361	38,5
899,759	38,27
900,158	38,42
900,557	38,21
900,955	38,61
901,354	38,42
901,752	38,24
902,15	38,32
902,548	38,23
902,947	38,36
903,345	38,4
903,742	38,27
904,14	38,62
904,538	38,39
904,936	38,32
905,333	38,45
905,731	38,37
906,128	38,54
906,525	38,42
906,923	38,6
907,32	38,5
907,717	38,5
908,114	38,5
908,511	38,7
908,907	38,45
909,304	38,46
909,701	38,46
910,097	38,63
910,494	38,46
910,89	38,67
911,286	38,28
911,682	38,37
912,078	38,33
912,474	38,39
912,87	38,42
913,266	38,08
913,662	38,25
914,058	38,6
914,453	38,36
914,849	38,37
915,244	38,15
915,639	38,57
916,034	38,42
916,43	38,45
916,825	38,22
917,22	38,46
917,614	38,25
918,009	38,58
918,404	38,48
918,798	38,71
919,193	38,58
919,587	38,39
919,982	38,27
920,376	38,37
920,77	38,6
921,164	38,34
921,558	38,44
921,952	38,52
922,346	38,21
922,74	38,44
923,133	38,04
923,527	38,44
923,92	38,29
924,314	38,22
924,707	37,85
925,1	37,9
925,493	38,18
925,886	38,32
926,279	38,17
926,672	38,58
927,065	38,25
927,457	38,17
927,85	38,18
928,243	38,18
928,635	38,07
929,027	38,24
929,42	38,27
929,812	38,16
930,204	38,16
930,596	38,5
930,988	38,08
931,379	38,1
931,771	38,1
932,163	37,98
932,554	38,18
932,946	38,33
933,337	37,96
933,729	38,41
934,12	38,12
934,511	37,97
934,902	38,23
935,293	37,94
935,684	38,05
936,075	38,23
936,465	37,67
936,856	37,91
937,246	38,09
937,637	38,06
938,027	38,01
938,417	38,03
938,808	37,66
939,198	38,28
939,588	38,02
939,978	38,16
940,368	38,21
940,757	37,89
941,147	37,94
941,537	37,58
941,926	38,12
942,315	38,37
942,705	38,21
943,094	38,1
943,483	38,39
943,872	38,07
944,261	38,1
944,65	38,61
945,039	37,91
945,428	37,45
945,816	37,81
946,205	37,6
946,593	37,66
946,982	37,65
947,37	37,98
947,758	37,85
948,146	37,65
948,534	37,44
948,922	38,41
949,31	37,61
949,698	37,4
950,086	37,72
950,473	37,64
950,861	37,83
951,248	37,66
951,636	37,23
952,023	37,78
952,41	37,75
952,797	37,3
953,184	37,68
953,571	37,68
953,958	37,93
954,345	37,2
954,731	37,54
955,118	37,47
955,505	37,49
955,891	37,44
956,277	37,31
956,664	37,56
957,05	37,37
957,436	36,89
957,822	37,44
958,208	37,26
958,594	37,43
958,979	37,35
959,365	37,34
959,751	37,09
960,136	37,51
960,522	37,25
960,907	37,39
961,292	37,23
961,677	37,49
962,062	37,49
962,447	37,15
962,832	37,06
963,217	37,1
963,602	37,84
963,986	37,07
964,371	37,38
964,756	37,53
965,14	37,78
965,524	37,21
965,908	37,34
966,293	37,35
966,677	36,82
967,061	37,26
967,445	37,26
967,828	37,46
968,212	37,61
968,596	37,48
968,979	37,36
969,363	37,45
969,746	37,13
970,129	37,19
970,513	37,19
970,896	37,11
971,279	36,95
971,662	37,23
972,045	37,2
972,428	37,26
972,81	37,21
973,193	37,37
973,575	37,09
973,958	37,4
974,34	37,66
974,723	37,22
975,105	36,75
975,487	37,14
975,869	37,32
976,251	37,52
976,633	36,92
977,015	37,45
977,396	37,25
977,778	37,44
978,16	37,37
978,541	37,08
978,922	37,32
979,304	37,32
979,685	37,14
980,066	37,06
980,447	37,18
980,828	37,35
981,209	36,92
981,59	37,53
981,97	37,28
982,351	37,4
982,732	37,25
983,112	37,57
983,493	37,22
983,873	37,17
984,253	37,23
984,633	37,27
985,013	37,03
985,393	37
985,773	37,44
986,153	37,01
986,533	37,1
986,912	37,19
987,292	37,26
987,671	37,02
988,051	37,09
988,43	37,36
988,809	37,39
989,188	37,24
989,567	37,3
989,946	37,59
990,325	37,14
990,704	37,03
991,083	37,33
991,461	36,99
991,84	37,14
992,218	37,33
992,597	37,5
992,975	36,98
993,353	37,33
993,732	37,51
994,11	37,33
994,488	37,23
994,866	37,38
995,243	37,17
995,621	37,2
995,999	37,28
996,376	37,4
996,754	37,17
997,131	37,06
997,509	37,16
997,886	37,34
998,263	37,47
998,64	37,23
999,017	36,97
999,394	37,02
999,771	37,32
1000,148	36,94
1000,524	36,87
1000,901	36,81
1001,277	37,34
1001,654	37,51
1002,03	37,14
1002,406	36,96
1002,783	37,19
1003,159	37,2
1003,535	37,29
1003,911	36,95
1004,286	36,83
1004,662	37,36
1005,038	37,4
1005,414	37,6
1005,789	37,36
1006,164	37,4
1006,54	37,68
1006,915	37,24
1007,29	37,4
1007,665	37,54
1008,04	37,3
1008,415	37,17
1008,79	37,16
1009,165	37,46
1009,54	37,46
1009,914	37,5
1010,289	37,22
1010,663	37,55
1011,038	37,2
1011,412	37,75
1011,786	37,25
1012,16	37,26
1012,535	37,61
1012,909	37,42
1013,282	37,66
1013,656	37,45
1014,03	36,96
1014,404	36,83
1014,777	37,65
1015,151	37,24
1015,524	37,24
1015,897	37,46
1016,271	37,81
1016,644	37,89
1017,017	37,59
1017,39	36,97
1017,763	37,88
1018,136	37,12
1018,508	37,28
1018,881	37,66
1019,254	36,87
1019,626	37,26
1019,999	37,58
1020,371	37,58
1020,743	37,66
1021,116	37,91
1021,488	37,48
1021,86	37,26
1022,232	37,37
1022,604	37,42
1022,975	37,78
1023,347	37,11
1023,719	37,34
1024,09	37,53
1024,462	37,76
1024,833	37,12
1025,204	36,7
1025,576	37,58
1025,947	37,38
1026,318	37,48
1026,689	38,15
1027,06	37,37
1027,431	37,65
1027,801	37,21
1028,172	37,45
1028,543	37,64
1028,913	37,58
1029,284	37,34
1029,654	37,2
1030,024	37,42
1030,394	37,85
1030,764	37,2
1031,135	37,71
1031,504	37,11
1031,874	37,5
1032,244	37,06
1032,614	38,07
1032,983	37,01
1033,353	37,65
1033,722	37,21
1034,092	37,67
1034,461	37,01
1034,83	37,89
1035,2	37,61
1035,569	37,37
1035,938	37,35
1036,307	37,71
1036,675	37,7
1037,044	37,18
1037,413	38
1037,781	37,22
1038,15	37,68
1038,518	37
1038,887	38,12
1039,255	37,24
1039,623	37,12
1039,991	37,25
1040,359	37,82
1040,727	37,64
1041,095	37,56
1041,463	38,12
1041,831	37,61
1042,198	37,82
1042,566	37,96
1042,933	36,79
1043,301	38,26
1043,668	37,43
1044,035	37,74
1044,402	37,41
1044,77	37,33
1045,137	37,1
1045,503	37,38
1045,87	37,2
1046,237	37,95
1046,604	37,54
1046,97	37,34
1047,337	37,42
1047,703	37,55
1048,07	37,45
1048,436	37,98
1048,802	37,11
1049,168	37,51
1049,534	37,38
1049,9	37,94
1050,266	38,26
1050,632	36,79
1050,998	37,02
1051,364	37,41
1051,729	38,15
1052,095	37,86
1052,46	37,63
1052,825	37,36
1053,191	37,34
1053,556	37,32
1053,921	36,97
1054,286	37,41
1054,651	38,32
1055,016	37,98
1055,381	37,52
1055,745	37,94
1056,11	37,47
1056,475	38,51
1056,839	37,68
1057,203	37,26
1057,568	37,26
1057,932	36,66
1058,296	37,82
1058,66	37,27
1059,024	37,64
1059,388	37,97
1059,752	37,2
1060,116	37,14
1060,48	37,76
1060,843	37,34
1061,207	37,5
1061,57	37,48
1061,934	37,23
1062,297	37,43
1062,66	37,43
1063,023	37,76
1063,386	37,79
1063,749	37,78
1064,112	37,77
1064,475	37,84
1064,838	37,31
1065,201	37,1
1065,563	37,91
1065,926	37,73
1066,288	37,69
1066,651	37,11
1067,013	37,44
1067,375	37,75
1067,737	37,3
1068,099	37,78
1068,461	37,79
1068,823	37,23
1069,185	37,42
1069,547	37,36
1069,909	36,57
1070,27	37,68
1070,632	38,65
1070,993	36,96
1071,355	37,61
1071,716	38,39
1072,077	37,77
1072,438	36,73
1072,799	38,51
1073,16	37,31
1073,521	36,77
1073,882	38,21
1074,243	37,17
1074,603	37,49
1074,964	36,99
1075,325	37,76
1075,685	38,32
1076,045	38,18
1076,406	37,51
1076,766	37,84
1077,126	37,52
1077,486	36,68
1077,846	38
1078,206	37,65
1078,566	37,26
1078,925	37,32
1079,285	37,64
1079,645	37,4
1080,004	38,05
1080,364	37,37
1080,723	37,02
1081,082	37,34
1081,442	37,03
1081,801	37,16
1082,16	37,57
1082,519	37,48
1082,878	36,88
1083,237	36,44
1083,595	37,52
1083,954	38,05
1084,313	37,19
1084,671	37,29
1085,03	37,13
1085,388	36,71
1085,746	36,99
1086,104	37,43
1086,463	37,27
1086,821	37,25
1087,179	37,33
1087,537	37,28
1087,894	37,91
1088,252	36,96
1088,61	37,81
1088,967	38,1
1089,325	37,67
1089,682	37,57
1090,04	37,7
1090,397	38,37
1090,754	38,17
1091,111	37,9
1091,469	38,06
1091,826	38,9
1092,182	37,84
1092,539	36,17
1092,896	38,27
1093,253	37,14
1093,609	37,73
1093,966	37,35
1094,322	36,71
1094,679	37,84
1095,035	36,47
1095,391	38,04
1095,748	37,7
1096,104	38,69
1096,46	37,17
1096,816	38,63
1097,171	39,12
1097,527	37,98
1097,883	37,82
1098,239	35,79
1098,594	37,47
1098,95	37,05
1099,305	37,63
1099,66	37,84
1100,016	36,57
1100,371	36,34
1100,726	37,83
1101,081	37,76
1101,436	37,9
1101,791	37,61
1102,146	36,76
1102,5	36,1
1102,855	36,98
1103,21	37,47
1103,564	36,8
1103,918	37
1104,273	36,21
1104,627	37,28
1104,981	36,84
1105,335	37,3
1105,69	37,04
1106,043	37,24
1106,397	38,47
1106,751	36,69
1107,105	38,08
1107,459	36,42
1107,812	37,19
1108,166	38,78
1108,519	36,35
1108,873	36,43
1109,226	36,38
1109,579	36,31
1109,932	35,75
1110,285	37,96
1110,638	36,68
1110,991	38,27
1111,344	37,44
1111,697	36,68
1112,05	38,66
1112,402	35,1
1112,755	35,9
1113,107	37,78
1113,46	37,95
1113,812	37,75
1114,164	38,8
1114,517	37,23
1114,869	42,7
1115,221	21,88
1115,573	36,08
1115,924	32,86
