Data from G_2_0_Relative__2__00147.txt Node

Date: Mon Jan 29 13:05:40 CET 2024
User: diatiterra
Spectrometer: HDX00911
Trigger mode: 0
Integration Time (sec): 6,000000E-3
Scans to average: 2
Nonlinearity correction enabled: false
Boxcar width: 0
Storing dark spectrum: false
XAxis mode: Wavelengths
Number of Pixels in Spectrum: 2068
>>>>>Begin Spectral Data<<<<<
194,468	53,66
195,025	53,27
195,581	41,28
196,138	55,56
196,694	38,11
197,251	44,56
197,807	41,33
198,363	45,57
198,919	41,33
199,474	42,67
200,03	40,84
200,586	37,84
201,141	38,46
201,696	51,61
202,251	37,07
202,806	38,6
203,361	47,26
203,916	38,17
204,471	37,87
205,025	42,37
205,58	40,94
206,134	42,92
206,688	40,13
207,242	33,76
207,796	41,22
208,35	43,74
208,904	44,9
209,457	41,08
210,011	36,15
210,564	41,37
211,117	40,43
211,67	43,66
212,223	45,4
212,776	38,91
213,329	44,85
213,881	46
214,434	33,33
214,986	41,27
215,538	36,5
216,09	41,99
216,642	38,54
217,194	40,42
217,746	35,81
218,297	39,06
218,849	36,48
219,4	45,09
219,951	40,89
220,502	38,97
221,053	34,66
221,604	39,38
222,155	39,54
222,705	41,96
223,256	40,13
223,806	33,33
224,356	47,22
224,906	34,8
225,456	41,89
226,006	51,59
226,556	40,92
227,106	46,88
227,655	37,31
228,204	37,83
228,754	40,86
229,303	39,34
229,852	44,49
230,401	38,74
230,949	39,78
231,498	43,33
232,047	45,61
232,595	36,61
233,143	40,09
233,691	38,93
234,239	37,95
234,787	39,77
235,335	44,52
235,883	39,11
236,43	32,64
236,978	35,42
237,525	31,03
238,072	37,04
238,619	49,53
239,166	42,6
239,713	34,99
240,26	39,63
240,806	45,67
241,353	43,45
241,899	44,05
242,445	38,97
242,991	37,96
243,537	46,6
244,083	43,15
244,629	37,5
245,174	33,19
245,72	34,67
246,265	41,26
246,81	29,57
247,355	43,29
247,9	36,32
248,445	37,74
248,99	40,66
249,534	36,73
250,079	35,11
250,623	36,71
251,168	45,86
251,712	38,71
252,256	38,49
252,8	44,44
253,343	31,52
253,887	36,17
254,43	34,55
254,974	35,53
255,517	34,12
256,06	35,1
256,603	24,09
257,146	42,23
257,689	37,45
258,232	38,1
258,774	33,42
259,317	26,19
259,859	30,52
260,401	25,97
260,943	36,22
261,485	29,78
262,027	43,33
262,569	33,5
263,11	43,8
263,652	33,41
264,193	42,08
264,734	34,4
265,275	42,96
265,816	42,86
266,357	40,36
266,898	33,11
267,438	38,53
267,979	37,61
268,519	37,86
269,059	35,98
269,6	41,76
270,14	40,54
270,68	39,83
271,219	33,33
271,759	40,67
272,298	36,97
272,838	28,9
273,377	44,24
273,916	40,49
274,455	35,86
274,994	49,34
275,533	36,49
276,072	38,41
276,61	47,58
277,149	40,78
277,687	29,29
278,225	40,95
278,763	41,63
279,301	34,44
279,839	36,77
280,377	45,26
280,914	40,37
281,452	36,93
281,989	39,12
282,526	35,84
283,064	28,83
283,601	38,98
284,137	44,76
284,674	41,99
285,211	40,52
285,747	35,8
286,284	35,84
286,82	40,77
287,356	43,05
287,892	35,37
288,428	36,91
288,964	49,41
289,5	35,06
290,035	41,06
290,571	43,66
291,106	34,9
291,641	42,27
292,176	47,92
292,711	44,08
293,246	46,79
293,781	42,44
294,315	39,65
294,85	34,73
295,384	32,36
295,918	32,89
296,453	32,55
296,987	33,89
297,52	37,5
298,054	37,36
298,588	40,65
299,121	41,24
299,655	40,05
300,188	28,7
300,721	44,42
301,254	37,21
301,787	44,79
302,32	36,41
302,853	41,63
303,385	40,97
303,918	33,41
304,45	34,65
304,982	34,89
305,514	36,81
306,046	31,51
306,578	33,41
307,11	38,46
307,641	35,71
308,173	31,82
308,704	41,07
309,236	42,34
309,767	28
310,298	41,24
310,829	41,78
311,359	32,48
311,89	40,41
312,421	38,34
312,951	37,21
313,481	33,18
314,012	22,82
314,542	32
315,072	36,43
315,601	38,74
316,131	37,53
316,661	32,61
317,19	29,19
317,72	30,48
318,249	37,02
318,778	35,29
319,307	39,06
319,836	38,11
320,365	33,64
320,893	33,07
321,422	35,71
321,95	40,22
322,479	30,25
323,007	28,99
323,535	41,63
324,063	35,93
324,591	33,1
325,118	35,6
325,646	30,66
326,173	33,56
326,701	36,9
327,228	41,82
327,755	39,95
328,282	38,5
328,809	42,6
329,336	23,33
329,862	33,86
330,389	32,87
330,915	40
331,441	31,24
331,968	25,3
332,494	38,5
333,02	29,03
333,545	35,61
334,071	31,92
334,597	33,17
335,122	35,63
335,648	27,58
336,173	27,11
336,698	33,94
337,223	26,9
337,748	36,97
338,272	28,24
338,797	30,37
339,322	30,54
339,846	27,87
340,37	32,41
340,894	26,06
341,419	33,4
341,942	29,61
342,466	34,24
342,99	39,83
343,514	36,48
344,037	26
344,56	29,35
345,084	34,85
345,607	28,16
346,13	28,63
346,653	40,34
347,175	36,13
347,698	35,17
348,221	38,92
348,743	33,09
349,265	35,65
349,787	31,67
350,309	40,17
350,831	33,28
351,353	30,46
351,875	33,89
352,397	32,33
352,918	35,84
353,439	33,39
353,961	41,18
354,482	31,65
355,003	33,39
355,524	29,73
356,044	35,67
356,565	30,7
357,086	28,94
357,606	31,99
358,126	41,99
358,646	37,77
359,167	31,46
359,687	39,62
360,206	34,86
360,726	36,23
361,246	41,62
361,765	29,7
362,285	34,02
362,804	33,29
363,323	36,94
363,842	36,58
364,361	37,17
364,88	30,66
365,398	36,45
365,917	34,42
366,435	30,72
366,954	33,92
367,472	39,41
367,99	36,45
368,508	29,8
369,026	37,94
369,544	32,2
370,061	27,54
370,579	36,92
371,096	41,62
371,613	38,45
372,131	34,89
372,648	31,54
373,165	31,08
373,681	34,37
374,198	35,16
374,715	31,56
375,231	34,66
375,747	27,67
376,264	30,02
376,78	31,58
377,296	28,25
377,812	32,5
378,327	29,66
378,843	28,36
379,359	35,08
379,874	29,55
380,389	30,72
380,905	31,83
381,42	32,78
381,935	31,26
382,449	30,96
382,964	26,86
383,479	25,95
383,993	28,97
384,508	29,68
385,022	30,71
385,536	25,66
386,05	29,45
386,564	28,07
387,078	28,5
387,592	26,33
388,105	28,22
388,619	25,89
389,132	24,27
389,645	25,68
390,158	25,41
390,671	25,32
391,184	24,41
391,697	26,3
392,21	24,35
392,722	22,66
393,235	24,75
393,747	24,79
394,259	24,28
394,771	24,01
395,283	23,15
395,795	21,41
396,307	21,32
396,818	22,33
397,33	23,81
397,841	21,86
398,353	20,89
398,864	22,19
399,375	22,81
399,886	21,28
400,397	22,17
400,907	19,56
401,418	20,84
401,928	20,31
402,439	19,57
402,949	21,09
403,459	18,39
403,969	17,75
404,479	20,06
404,989	17,3
405,498	18,67
406,008	16,07
406,517	16,98
407,027	15,89
407,536	16,51
408,045	14,29
408,554	14,74
409,063	14,25
409,572	14,99
410,08	14,31
410,589	13,43
411,097	12,48
411,606	12,96
412,114	12,66
412,622	12,49
413,13	11,99
413,638	11,6
414,145	12,19
414,653	11,34
415,16	11,14
415,668	11,01
416,175	10,41
416,682	10,29
417,189	9,18
417,696	10,26
418,203	9,38
418,71	10,64
419,216	9,23
419,723	9,37
420,229	10,18
420,735	8,92
421,242	9,04
421,748	8,91
422,254	9,02
422,759	9,03
423,265	9,44
423,771	8,92
424,276	8,78
424,781	8,84
425,287	8,45
425,792	8,53
426,297	8,62
426,802	8,11
427,306	8,1
427,811	8,23
428,316	8,45
428,82	8,41
429,324	8,75
429,829	8,52
430,333	8,39
430,837	8,56
431,34	8,55
431,844	8,55
432,348	8,13
432,851	8,59
433,355	8,64
433,858	8,22
434,361	8,43
434,864	8,31
435,367	7,99
435,87	7,88
436,373	7,77
436,876	8,24
437,378	8,2
437,88	8,5
438,383	7,67
438,885	7,73
439,387	8,08
439,889	7,9
440,391	8,1
440,892	7,98
441,394	8,02
441,896	7,63
442,397	8,46
442,898	8,17
443,399	7,67
443,9	8,5
444,401	8,38
444,902	7,96
445,403	7,99
445,903	7,89
446,404	7,94
446,904	7,77
447,405	8,04
447,905	8
448,405	8,27
448,905	7,82
449,404	8,04
449,904	7,85
450,404	8,09
450,903	7,99
451,403	8,22
451,902	8,37
452,401	8,07
452,9	7,74
453,399	8,15
453,898	8,31
454,396	7,76
454,895	8,07
455,393	8,57
455,892	8,34
456,39	8,23
456,888	8,24
457,386	8,39
457,884	8,3
458,382	8,14
458,879	8,48
459,377	8,49
459,874	7,92
460,372	8,12
460,869	8,42
461,366	8,49
461,863	8,35
462,36	8,15
462,857	8,16
463,353	8,42
463,85	8,05
464,346	8,32
464,843	8,26
465,339	8,25
465,835	8,11
466,331	8,22
466,827	8,39
467,323	8,21
467,818	8,23
468,314	8,5
468,809	8,18
469,305	8,28
469,8	8,37
470,295	8,4
470,79	8,27
471,285	8,2
471,78	8,02
472,274	8,32
472,769	8,49
473,263	8,35
473,758	8,1
474,252	8,38
474,746	8,45
475,24	8,62
475,734	8,34
476,228	8,21
476,721	7,91
477,215	8,61
477,708	8,44
478,202	8,64
478,695	8,58
479,188	8,26
479,681	8,19
480,174	8,29
480,667	8,56
481,159	8,21
481,652	8,17
482,144	8,74
482,637	8,59
483,129	8,37
483,621	8,86
484,113	8,09
484,605	8,44
485,097	8,47
485,588	8,49
486,08	8,37
486,571	8,37
487,063	8,52
487,554	8,48
488,045	8,55
488,536	8,48
489,027	8,77
489,518	8,67
490,008	8,26
490,499	8,64
490,989	8,6
491,48	8,87
491,97	8,98
492,46	8,7
492,95	8,72
493,44	9,04
493,93	8,78
494,419	8,87
494,909	9,03
495,398	8,55
495,888	9,13
496,377	9,31
496,866	9,05
497,355	9,02
497,844	9,09
498,333	8,75
498,821	9,2
499,31	9,42
499,798	9,28
500,287	9,5
500,775	9,56
501,263	9,8
501,751	9,67
502,239	9,84
502,727	9,56
503,215	10,19
503,702	9,97
504,19	10,07
504,677	10,24
505,164	10,25
505,651	10,53
506,139	10,63
506,625	10,66
507,112	10,93
507,599	10,72
508,086	10,72
508,572	11,18
509,058	11,27
509,545	11,47
510,031	11,43
510,517	11,97
511,003	11,93
511,489	12,1
511,974	12,39
512,46	12,96
512,946	12,64
513,431	12,75
513,916	13,2
514,401	13,35
514,887	13,78
515,371	13,97
515,856	14,14
516,341	14,57
516,826	14,73
517,31	15,04
517,795	14,85
518,279	15,02
518,763	15,72
519,247	15,95
519,731	15,82
520,215	16,33
520,699	16,59
521,182	16,76
521,666	17,51
522,149	17,39
522,633	18,03
523,116	18,08
523,599	18,39
524,082	18,53
524,565	18,91
525,048	19,24
525,53	19,42
526,013	19,58
526,495	20,08
526,978	19,69
527,46	20,32
527,942	20,69
528,424	20,7
528,906	20,61
529,388	21,34
529,87	21,4
530,351	21,74
530,833	21,56
531,314	21,93
531,795	22,31
532,277	22,34
532,758	22,26
533,238	22,63
533,719	22,96
534,2	22,69
534,681	22,91
535,161	23,41
535,642	22,68
536,122	23,26
536,602	23,1
537,082	23,32
537,562	23,16
538,042	23,47
538,522	23,5
539,001	23,34
539,481	23,83
539,96	23,41
540,44	23,4
540,919	23,6
541,398	23,62
541,877	23,88
542,356	23,8
542,835	23,97
543,313	24,04
543,792	23,91
544,27	23,88
544,749	23,93
545,227	23,99
545,705	24,14
546,183	24,39
546,661	24,05
547,139	24,7
547,616	24,43
548,094	24,09
548,571	24,51
549,049	24,17
549,526	24,61
550,003	24,55
550,48	24,86
550,957	24,44
551,434	24,67
551,911	24,77
552,387	24,81
552,864	24,16
553,34	24,41
553,817	24,53
554,293	24,57
554,769	24,61
555,245	24,72
555,721	24,5
556,197	24,43
556,672	24,47
557,148	24,38
557,623	24,35
558,099	24,37
558,574	24,18
559,049	24,61
559,524	24,17
559,999	24,32
560,474	24,19
560,948	24,05
561,423	23,94
561,897	23,91
562,372	23,92
562,846	23,93
563,32	23,58
563,794	23,41
564,268	23,44
564,742	23,28
565,216	23,23
565,69	23,42
566,163	22,89
566,636	22,84
567,11	22,79
567,583	22,66
568,056	22,3
568,529	22,15
569,002	22,07
569,475	22,19
569,947	21,69
570,42	21,58
570,892	21,69
571,365	21,42
571,837	21,14
572,309	21,37
572,781	20,83
573,253	20,66
573,725	20,33
574,197	20,41
574,668	19,87
575,14	20,16
575,611	19,84
576,082	19,91
576,554	19,6
577,025	19,69
577,496	19,31
577,967	19,04
578,437	18,95
578,908	18,98
579,379	18,59
579,849	18,61
580,319	18,77
580,79	18,55
581,26	18,42
581,73	18,42
582,2	17,9
582,669	18,09
583,139	18,07
583,609	17,83
584,078	17,86
584,548	17,75
585,017	17,97
585,486	17,3
585,955	17,41
586,424	17,08
586,893	17,39
587,362	17,04
587,83	17,1
588,299	17,36
588,767	17,02
589,236	16,98
589,704	17,04
590,172	16,78
590,64	16,4
591,108	16,69
591,576	16,38
592,043	16,49
592,511	16,56
592,978	16,47
593,446	16,25
593,913	16,29
594,38	15,93
594,847	16,17
595,314	16,22
595,781	16,25
596,248	16,2
596,715	16,21
597,181	15,93
597,647	16,2
598,114	16,01
598,58	15,71
599,046	15,93
599,512	15,77
599,978	15,91
600,444	15,93
600,91	15,61
601,375	15,72
601,841	15,56
602,306	15,68
602,771	15,58
603,236	15,63
603,702	15,54
604,167	15,28
604,631	15,32
605,096	15,3
605,561	15,27
606,025	15,15
606,49	15,17
606,954	15,14
607,418	15,13
607,882	14,95
608,347	14,94
608,81	14,71
609,274	14,65
609,738	14,46
610,202	14,57
610,665	14,6
611,128	14,34
611,592	14,37
612,055	14,23
612,518	14,03
612,981	14,09
613,444	14,05
613,907	13,95
614,369	13,78
614,832	13,79
615,294	13,59
615,757	13,51
616,219	13,6
616,681	13,36
617,143	13,41
617,605	13,32
618,067	13,32
618,529	13,08
618,99	13,2
619,452	13,02
619,913	13
620,375	12,69
620,836	12,79
621,297	12,74
621,758	12,64
622,219	12,69
622,68	12,6
623,14	12,47
623,601	12,54
624,061	12,39
624,522	12,55
624,982	12,52
625,442	12,45
625,902	12,42
626,362	12,48
626,822	12,29
627,282	12,36
627,742	12,31
628,201	12,44
628,661	12,33
629,12	12,18
629,579	12,33
630,038	12,25
630,497	12,36
630,956	12,21
631,415	12,18
631,874	12,06
632,332	12,08
632,791	12,12
633,249	11,91
633,708	11,95
634,166	11,82
634,624	11,95
635,082	11,86
635,54	11,89
635,998	11,61
636,455	11,6
636,913	11,58
637,37	11,41
637,828	11,52
638,285	11,35
638,742	11,49
639,199	11,31
639,656	11,12
640,113	11,14
640,57	11,14
641,027	10,98
641,483	10,99
641,94	11
642,396	10,74
642,852	10,71
643,309	10,65
643,765	10,55
644,221	10,37
644,676	10,21
645,132	10,28
645,588	10,16
646,043	9,98
646,499	9,96
646,954	9,94
647,409	9,78
647,864	9,79
648,319	9,83
648,774	9,54
649,229	9,43
649,684	9,45
650,139	9,44
650,593	9,32
651,047	9,28
651,502	9,3
651,956	9,22
652,41	9,41
652,864	9,16
653,318	9,29
653,772	9,24
654,225	9,26
654,679	9,09
655,133	9,16
655,586	9,07
656,039	8,98
656,492	8,91
656,946	8,87
657,399	8,88
657,851	8,67
658,304	8,73
658,757	8,6
659,209	8,69
659,662	8,73
660,114	8,52
660,567	8,47
661,019	8,6
661,471	8,51
661,923	8,33
662,375	8,35
662,826	8,25
663,278	8,36
663,73	8,27
664,181	8,24
664,632	8,37
665,084	8,38
665,535	8,23
665,986	8,18
666,437	8,22
666,888	8,36
667,338	8,2
667,789	8,31
668,24	8,1
668,69	8,33
669,14	8,34
669,591	8,39
670,041	8,51
670,491	8,51
670,941	8,38
671,391	8,55
671,84	8,56
672,29	8,62
672,74	8,64
673,189	8,75
673,638	8,79
674,088	8,83
674,537	8,93
674,986	9,04
675,435	9,01
675,883	9,21
676,332	9,24
676,781	9,16
677,229	9,4
677,678	9,47
678,126	9,61
678,574	9,76
679,022	9,8
679,47	9,88
679,918	9,95
680,366	10,23
680,814	10,32
681,261	10,35
681,709	10,41
682,156	10,5
682,604	10,58
683,051	10,74
683,498	10,84
683,945	10,87
684,392	11
684,839	10,9
685,286	11,09
685,732	11,35
686,179	11,28
686,625	11,45
687,071	11,37
687,518	11,66
687,964	11,63
688,41	11,78
688,856	11,73
689,301	11,99
689,747	12,17
690,193	12,33
690,638	12,51
691,084	12,86
691,529	13,03
691,974	13,22
692,419	13,66
692,864	13,91
693,309	14,31
693,754	14,78
694,199	15,2
694,643	15,46
695,088	15,81
695,532	16,35
695,977	16,69
696,421	17,36
696,865	17,72
697,309	18,24
697,753	18,74
698,197	18,98
698,64	19,72
699,084	19,93
699,527	20,54
699,971	21,02
700,414	21,63
700,857	21,85
701,3	22,62
701,743	23,03
702,186	23,56
702,629	24
703,072	24,44
703,515	24,74
703,957	25,66
704,399	25,84
704,842	26,17
705,284	26,65
705,726	26,97
706,168	27,64
706,61	28,14
707,052	28,4
707,494	28,82
707,935	29,14
708,377	29,68
708,818	29,92
709,26	30,41
709,701	30,57
710,142	31,06
710,583	31,56
711,024	31,91
711,465	32,22
711,905	32,67
712,346	33,17
712,787	33,26
713,227	33,74
713,667	34,13
714,108	34,41
714,548	34,64
714,988	34,88
715,428	35,28
715,868	35,59
716,307	36,08
716,747	36,34
717,186	36,67
717,626	36,61
718,065	37,32
718,504	37,36
718,944	37,79
719,383	37,79
719,822	38,23
720,261	38,34
720,699	38,63
721,138	39,35
721,576	39,03
722,015	39,4
722,453	39,52
722,892	39,71
723,33	40,04
723,768	40,11
724,206	40,45
724,644	40,81
725,081	41
725,519	40,9
725,957	41,18
726,394	41,29
726,832	41,6
727,269	41,66
727,706	42,02
728,143	42,26
728,58	42,29
729,017	42,49
729,454	42,44
729,89	42,69
730,327	43,02
730,764	42,85
731,2	43,02
731,636	42,84
732,072	43,27
732,509	43,45
732,945	43,3
733,38	43,57
733,816	43,49
734,252	43,61
734,688	43,61
735,123	43,79
735,559	43,77
735,994	43,82
736,429	44,25
736,864	44,03
737,299	44,13
737,734	44,31
738,169	44,27
738,604	44,33
739,038	44,27
739,473	44,27
739,907	44,25
740,342	44,56
740,776	44,47
741,21	44,23
741,644	44,48
742,078	44,51
742,512	44,26
742,946	44,25
743,379	44,64
743,813	44,43
744,246	44,48
744,68	44,37
745,113	44,29
745,546	44,52
745,979	44,7
746,412	44,57
746,845	44,15
747,278	44,29
747,711	44,52
748,143	44,46
748,576	44,38
749,008	44,18
749,441	44,41
749,873	44,35
750,305	44
750,737	44,29
751,169	44,28
751,601	44,07
752,032	44,05
752,464	44,11
752,896	43,93
753,327	43,92
753,758	43,96
754,19	43,9
754,621	43,91
755,052	43,51
755,483	43,61
755,914	43,69
756,344	43,65
756,775	43,51
757,206	43,7
757,636	43,57
758,066	43,74
758,497	43,35
758,927	43,58
759,357	43,57
759,787	43,47
760,217	43,37
760,647	43,58
761,076	43,4
761,506	43,27
761,935	43,23
762,365	43,36
762,794	43,08
763,223	43,05
763,653	43,31
764,082	42,69
764,51	43,06
764,939	43,05
765,368	42,7
765,797	42,85
766,225	42,8
766,654	42,81
767,082	42,82
767,51	43,02
767,938	42,92
768,367	42,98
768,795	42,58
769,222	42,84
769,65	42,9
770,078	42,74
770,505	42,85
770,933	42,73
771,36	42,56
771,788	42,77
772,215	42,67
772,642	42,83
773,069	42,74
773,496	42,42
773,923	42,87
774,349	42,58
774,776	42,53
775,203	42,28
775,629	42,39
776,055	42,52
776,482	42,62
776,908	42,5
777,334	42,35
777,76	42,13
778,186	42,67
778,611	42,41
779,037	42,43
779,463	42,22
779,888	42,22
780,314	42,36
780,739	42,54
781,164	42,4
781,589	42,25
782,014	42,42
782,439	42,16
782,864	42
783,289	41,82
783,713	42,2
784,138	42,25
784,562	41,89
784,987	42,22
785,411	42,4
785,835	42,18
786,259	42,18
786,683	42,35
787,107	42,23
787,531	42,12
787,954	42,13
788,378	42
788,802	41,99
789,225	41,94
789,648	42,22
790,071	41,96
790,495	42,03
790,918	41,79
791,34	42,11
791,763	41,84
792,186	41,93
792,609	41,87
793,031	41,93
793,454	41,82
793,876	41,82
794,298	42,17
794,721	41,73
795,143	41,44
795,565	41,68
795,986	41,55
796,408	41,95
796,83	41,52
797,252	41,59
797,673	41,69
798,094	41,65
798,516	41,48
798,937	41,52
799,358	41,66
799,779	41,62
800,2	41,79
800,621	41,66
801,042	41,68
801,462	41,49
801,883	41,74
802,303	41,58
802,724	41,61
803,144	41,65
803,564	41,56
803,984	41,66
804,404	41,53
804,824	41,73
805,244	41,76
805,664	41,76
806,084	41,52
806,503	41,6
806,923	41,58
807,342	41,33
807,761	41,46
808,18	41,61
808,599	41,63
809,018	41,43
809,437	41,62
809,856	41,57
810,275	41,49
810,693	41,75
811,112	41,6
811,53	41,56
811,949	41,59
812,367	41,3
812,785	41,33
813,203	41,66
813,621	41,63
814,039	41,02
814,457	41,5
814,874	41,34
815,292	41,32
815,709	41,46
816,127	41,49
816,544	41,9
816,961	41,57
817,378	41,45
817,795	41,49
818,212	41,45
818,629	41,69
819,046	41,48
819,462	41,54
819,879	41,56
820,295	41,15
820,712	41,59
821,128	41,6
821,544	41,32
821,96	41,32
822,376	41,28
822,792	41,54
823,208	41,27
823,624	41,18
824,039	41,42
824,455	41,4
824,87	41,46
825,286	41,36
825,701	41,48
826,116	41,31
826,531	41,19
826,946	41,45
827,361	41,37
827,776	41,16
828,19	41,37
828,605	41,4
829,02	41,1
829,434	41,23
829,848	41,22
830,263	41,33
830,677	41,22
831,091	41,3
831,505	41,24
831,919	41,49
832,332	41,37
832,746	41,23
833,16	40,83
833,573	41,26
833,987	41,36
834,4	41,12
834,813	41,3
835,226	41,27
835,639	41,2
836,052	41,17
836,465	41,23
836,878	41,31
837,29	41,17
837,703	41,04
838,116	41,09
838,528	40,84
838,94	41,3
839,352	40,88
839,765	41,26
840,177	40,8
840,589	41,11
841	41,16
841,412	41,16
841,824	40,98
842,235	40,87
842,647	40,87
843,058	41,26
843,47	40,71
843,881	41,08
844,292	41,07
844,703	40,91
845,114	41,07
845,525	41,08
845,935	40,96
846,346	40,93
846,757	40,87
847,167	41,08
847,577	40,92
847,988	41,06
848,398	41,11
848,808	41,09
849,218	40,91
849,628	40,88
850,038	40,82
850,448	41,14
850,857	40,73
851,267	41,02
851,676	40,73
852,086	40,78
852,495	41,19
852,904	40,96
853,313	40,72
853,722	41,02
854,131	40,65
854,54	40,75
854,949	40,76
855,357	40,73
855,766	40,86
856,174	41,08
856,583	40,53
856,991	40,91
857,399	40,79
857,807	40,7
858,215	40,79
858,623	40,56
859,031	40,78
859,439	40,97
859,846	41,06
860,254	40,88
860,661	40,72
861,069	40,62
861,476	40,37
861,883	40,69
862,29	40,88
862,697	40,78
863,104	40,81
863,511	40,6
863,918	40,77
864,325	40,82
864,731	40,45
865,138	40,9
865,544	40,67
865,95	40,82
866,357	40,55
866,763	40,85
867,169	40,63
867,575	40,45
867,98	40,61
868,386	41,03
868,792	40,88
869,197	40,54
869,603	40,52
870,008	40,4
870,414	40,44
870,819	40,69
871,224	40,54
871,629	40,33
872,034	40,69
872,439	40,49
872,844	40,52
873,248	40,78
873,653	40,93
874,057	40,57
874,462	40,4
874,866	41,24
875,27	40,72
875,674	40,88
876,078	40,56
876,482	40,31
876,886	40,59
877,29	40,56
877,694	40,37
878,097	40,69
878,501	40,79
878,904	40,56
879,308	40,11
879,711	40,4
880,114	40,84
880,517	40,28
880,92	40,53
881,323	40,54
881,726	40,41
882,128	40,35
882,531	40,44
882,934	40,41
883,336	40,49
883,738	40,76
884,141	40,44
884,543	40,36
884,945	40,59
885,347	40,3
885,749	40,23
886,151	40,32
886,552	40,36
886,954	40,54
887,355	40,6
887,757	40,34
888,158	40,53
888,56	40,89
888,961	40,3
889,362	40,62
889,763	40,38
890,164	40,4
890,565	40,15
890,965	40,25
891,366	40,49
891,767	40,39
892,167	40,04
892,567	40,39
892,968	39,86
893,368	40,55
893,768	40,18
894,168	40,32
894,568	40,51
894,968	40,61
895,368	40,55
895,767	40,56
896,167	40,22
896,566	40,6
896,966	40,15
897,365	40,37
897,764	40,45
898,164	40,33
898,563	40,63
898,962	40,25
899,361	40,4
899,759	40,33
900,158	40,47
900,557	40,34
900,955	40,34
901,354	40,05
901,752	40,44
902,15	40,3
902,548	40,22
902,947	40,27
903,345	40,15
903,742	40,27
904,14	40,16
904,538	40
904,936	40,17
905,333	40,36
905,731	39,89
906,128	40,03
906,525	40,22
906,923	40,5
907,32	40,46
907,717	40,14
908,114	39,91
908,511	40,51
908,907	39,92
909,304	40,17
909,701	40,52
910,097	40,34
910,494	40,14
910,89	40,08
911,286	40,13
911,682	39,89
912,078	40,13
912,474	39,93
912,87	39,95
913,266	40,2
913,662	40,13
914,058	40,49
914,453	40,2
914,849	40,09
915,244	40,23
915,639	40,12
916,034	40,34
916,43	40,19
916,825	39,98
917,22	40,47
917,614	39,74
918,009	40,26
918,404	39,99
918,798	40,06
919,193	40,09
919,587	40,19
919,982	39,88
920,376	40,14
920,77	39,99
921,164	40,2
921,558	40,28
921,952	40,13
922,346	40,32
922,74	40,08
923,133	39,9
923,527	40,3
923,92	40,48
924,314	39,97
924,707	39,96
925,1	40,24
925,493	40,92
925,886	39,9
926,279	40,27
926,672	39,91
927,065	40,14
927,457	39,92
927,85	40,08
928,243	39,68
928,635	39,95
929,027	39,73
929,42	39,84
929,812	39,67
930,204	39,71
930,596	40,13
930,988	39,75
931,379	39,9
931,771	39,87
932,163	39,85
932,554	39,36
932,946	40,14
933,337	39,81
933,729	39,79
934,12	40,45
934,511	40,17
934,902	39,85
935,293	39,63
935,684	39,51
936,075	40,02
936,465	39,69
936,856	39,62
937,246	39,79
937,637	39,9
938,027	39,31
938,417	39,41
938,808	39,69
939,198	39,82
939,588	40,04
939,978	40,16
940,368	39,55
940,757	39,77
941,147	39,8
941,537	40,04
941,926	39,95
942,315	39,45
942,705	39,87
943,094	40
943,483	39,53
943,872	39,62
944,261	39,68
944,65	39,78
945,039	39,68
945,428	39,45
945,816	39,43
946,205	39,56
946,593	39,98
946,982	39,66
947,37	40,16
947,758	39,57
948,146	39,51
948,534	39,15
948,922	39,6
949,31	39
949,698	38,91
950,086	39,66
950,473	39,48
950,861	38,36
951,248	39,61
951,636	39,38
952,023	38,74
952,41	39,41
952,797	38,84
953,184	38,99
953,571	39,26
953,958	39,02
954,345	39,04
954,731	39,17
955,118	38,86
955,505	38,86
955,891	39,01
956,277	38,77
956,664	39,15
957,05	38,66
957,436	39,06
957,822	38,71
958,208	38,7
958,594	39,08
958,979	39
959,365	38,69
959,751	39,18
960,136	38,84
960,522	39,13
960,907	39,11
961,292	38,67
961,677	38,67
962,062	38,9
962,447	38,54
962,832	39,07
963,217	38,83
963,602	39,03
963,986	39,09
964,371	38,73
964,756	38,79
965,14	39,08
965,524	38,94
965,908	38,5
966,293	38,55
966,677	38,51
967,061	38,59
967,445	38,82
967,828	38,52
968,212	38,38
968,596	38,69
968,979	39,11
969,363	38,7
969,746	38,99
970,129	38,69
970,513	38,87
970,896	38,47
971,279	38,67
971,662	38,77
972,045	38,85
972,428	38,28
972,81	38,53
973,193	38,64
973,575	38,42
973,958	38,9
974,34	38,34
974,723	38,36
975,105	38,69
975,487	39,05
975,869	38,86
976,251	38,92
976,633	38,65
977,015	38,69
977,396	39,01
977,778	39,03
978,16	38,73
978,541	38,34
978,922	38,78
979,304	38,72
979,685	38,76
980,066	39,01
980,447	38,37
980,828	38,98
981,209	38,56
981,59	38,63
981,97	38,99
982,351	39,24
982,732	38,42
983,112	39,07
983,493	38,74
983,873	38,69
984,253	39,15
984,633	39,05
985,013	38,78
985,393	39,12
985,773	38,79
986,153	38,38
986,533	39,03
986,912	39,38
987,292	38,71
987,671	38,87
988,051	38,92
988,43	38,25
988,809	38,73
989,188	38,56
989,567	38,86
989,946	38,87
990,325	38,98
990,704	38,27
991,083	38,57
991,461	38,91
991,84	38,6
992,218	38,9
992,597	38,98
992,975	39,04
993,353	38,74
993,732	39,13
994,11	39,1
994,488	38,37
994,866	38,68
995,243	38,95
995,621	38,89
995,999	39,27
996,376	38,81
996,754	38,76
997,131	38,86
997,509	38,5
997,886	38,67
998,263	39,1
998,64	38,78
999,017	38,56
999,394	38,37
999,771	38,98
1000,148	38,64
1000,524	38,31
1000,901	38,97
1001,277	38,63
1001,654	38,46
1002,03	38,74
1002,406	38,93
1002,783	39,01
1003,159	39,13
1003,535	38,78
1003,911	38,72
1004,286	39,19
1004,662	38,5
1005,038	39,03
1005,414	38,8
1005,789	38,74
1006,164	39,03
1006,54	39,34
1006,915	38,81
1007,29	38,22
1007,665	39,66
1008,04	38,64
1008,415	39,63
1008,79	38,93
1009,165	38,41
1009,54	38,1
1009,914	39,1
1010,289	38,47
1010,663	38,98
1011,038	38,55
1011,412	39,29
1011,786	38,9
1012,16	38,22
1012,535	39,03
1012,909	38,97
1013,282	39
1013,656	39,28
1014,03	38,69
1014,404	39,12
1014,777	38,9
1015,151	38,83
1015,524	38,83
1015,897	39,46
1016,271	39,42
1016,644	39,49
1017,017	38,85
1017,39	38,7
1017,763	39,32
1018,136	38,99
1018,508	38,85
1018,881	39,09
1019,254	38,43
1019,626	38,63
1019,999	38,79
1020,371	38,4
1020,743	38,89
1021,116	39,32
1021,488	38,98
1021,86	38,46
1022,232	39,24
1022,604	38,91
1022,975	39,17
1023,347	38,99
1023,719	39,25
1024,09	38,48
1024,462	39,3
1024,833	38,52
1025,204	37,9
1025,576	39,45
1025,947	38,87
1026,318	39,04
1026,689	39,61
1027,06	39,17
1027,431	39,36
1027,801	38,61
1028,172	39
1028,543	38,68
1028,913	39,28
1029,284	38,57
1029,654	39,12
1030,024	38,24
1030,394	39,02
1030,764	39,08
1031,135	38,89
1031,504	39,47
1031,874	39,22
1032,244	39,06
1032,614	39,29
1032,983	38,96
1033,353	39,06
1033,722	38,8
1034,092	38,81
1034,461	38,98
1034,83	38,87
1035,2	39,18
1035,569	38,88
1035,938	39,33
1036,307	39,08
1036,675	38,75
1037,044	39,3
1037,413	39,54
1037,781	39,41
1038,15	38,64
1038,518	38,79
1038,887	38,8
1039,255	38,36
1039,623	38,41
1039,991	39,18
1040,359	39,1
1040,727	38,94
1041,095	38,41
1041,463	39,11
1041,831	39,28
1042,198	38,59
1042,566	40,19
1042,933	38,51
1043,301	38,86
1043,668	38,95
1044,035	39,49
1044,402	39,5
1044,77	38,41
1045,137	39,46
1045,503	38,95
1045,87	38,78
1046,237	39,24
1046,604	38,96
1046,97	39,47
1047,337	38,75
1047,703	39,39
1048,07	39,4
1048,436	39,29
1048,802	38,8
1049,168	38,91
1049,534	39,36
1049,9	39,58
1050,266	39,56
1050,632	38,99
1050,998	38,31
1051,364	39,5
1051,729	39,11
1052,095	39,31
1052,46	39,21
1052,825	38,86
1053,191	38,54
1053,556	39,57
1053,921	39,4
1054,286	38,88
1054,651	39,3
1055,016	38,69
1055,381	39,33
1055,745	39,4
1056,11	39,26
1056,475	39,77
1056,839	39,37
1057,203	39,45
1057,568	39,05
1057,932	38,13
1058,296	40,07
1058,66	39,14
1059,024	39,63
1059,388	39,18
1059,752	39,7
1060,116	40,16
1060,48	38,96
1060,843	39,04
1061,207	40,56
1061,57	39,02
1061,934	39,39
1062,297	40,05
1062,66	39
1063,023	39,46
1063,386	39,46
1063,749	39,86
1064,112	40,07
1064,475	38,71
1064,838	38,63
1065,201	38,7
1065,563	39,08
1065,926	38,41
1066,288	39,4
1066,651	39,08
1067,013	38,12
1067,375	39,63
1067,737	38,46
1068,099	38,73
1068,461	40,69
1068,823	39,88
1069,185	40,13
1069,547	39,08
1069,909	38,48
1070,27	38,66
1070,632	38,68
1070,993	38,63
1071,355	39,83
1071,716	39,03
1072,077	39,84
1072,438	39,47
1072,799	40,07
1073,16	38,91
1073,521	38,02
1073,882	39,75
1074,243	39,57
1074,603	38,59
1074,964	39
1075,325	38,98
1075,685	39,15
1076,045	39,5
1076,406	40,3
1076,766	38,6
1077,126	40,38
1077,486	38,56
1077,846	38,43
1078,206	39,53
1078,566	38,98
1078,925	39,91
1079,285	40,05
1079,645	39,3
1080,004	38,06
1080,364	38,85
1080,723	38,93
1081,082	37,63
1081,442	38,11
1081,801	38,17
1082,16	37,99
1082,519	40,03
1082,878	38,4
1083,237	39,76
1083,595	37,87
1083,954	39,47
1084,313	39,23
1084,671	39,47
1085,03	39,61
1085,388	38,55
1085,746	39
1086,104	38,18
1086,463	39,43
1086,821	37,88
1087,179	39,93
1087,537	38,24
1087,894	39,49
1088,252	39,3
1088,61	41,01
1088,967	39,51
1089,325	39,99
1089,682	36,79
1090,04	38,21
1090,397	38,67
1090,754	38,68
1091,111	39,44
1091,469	40,02
1091,826	39,92
1092,182	40,27
1092,539	40,14
1092,896	38,92
1093,253	38,54
1093,609	38,63
1093,966	39,91
1094,322	38,29
1094,679	40,32
1095,035	39,59
1095,391	39,94
1095,748	39,09
1096,104	40,09
1096,46	39,36
1096,816	40,65
1097,171	39,88
1097,527	38,11
1097,883	40,14
1098,239	37,7
1098,594	40,92
1098,95	39,6
1099,305	40,77
1099,66	38,29
1100,016	39,09
1100,371	39,8
1100,726	38,71
1101,081	41,7
1101,436	37,5
1101,791	39,87
1102,146	38,32
1102,5	39,69
1102,855	38,24
1103,21	40,18
1103,564	37,23
1103,918	40,71
1104,273	39,5
1104,627	39,03
1104,981	38,73
1105,335	39,26
1105,69	37,91
1106,043	37,85
1106,397	40,39
1106,751	40,6
1107,105	40,85
1107,459	39,64
1107,812	40,87
1108,166	38,56
1108,519	37,3
1108,873	41,11
1109,226	37,59
1109,579	38,82
1109,932	40,11
1110,285	37,6
1110,638	39,5
1110,991	39,29
1111,344	39,24
1111,697	38,39
1112,05	38,71
1112,402	39,83
1112,755	39,4
1113,107	40,39
1113,46	39,93
1113,812	39,92
1114,164	40,5
1114,517	39,51
1114,869	52,81
1115,221	18,23
1115,573	39,69
1115,924	39,44
