Data from G_4_0_Relative__6__00159.txt Node

Date: Mon Jan 29 13:06:41 CET 2024
User: diatiterra
Spectrometer: HDX00911
Trigger mode: 0
Integration Time (sec): 6,000000E-3
Scans to average: 2
Nonlinearity correction enabled: false
Boxcar width: 0
Storing dark spectrum: false
XAxis mode: Wavelengths
Number of Pixels in Spectrum: 2068
>>>>>Begin Spectral Data<<<<<
194,468	45,12
195,025	36,18
195,581	44,77
196,138	46,2
196,694	40,55
197,251	45,09
197,807	53,21
198,363	40,82
198,919	41,33
199,474	42,67
200,03	30,24
200,586	34,51
201,141	35,04
201,696	42,58
202,251	39,92
202,806	30,8
203,361	37,55
203,916	40,72
204,471	40,59
205,025	49,68
205,58	44,07
206,134	36,34
206,688	42,3
207,242	38,85
207,796	41,63
208,35	43,74
208,904	37,55
209,457	43,23
210,011	37
210,564	46,36
211,117	43,13
211,67	38,83
212,223	43,68
212,776	42,54
213,329	46,46
213,881	43,53
214,434	42,58
214,986	42,63
215,538	40,49
216,09	41,08
216,642	35,97
217,194	44,58
217,746	37,92
218,297	40,34
218,849	37,77
219,4	49,27
219,951	43,56
220,502	41,11
221,053	42,65
221,604	39,79
222,155	36,78
222,705	38,2
223,256	44,47
223,806	43,4
224,356	53,21
224,906	38,16
225,456	40,21
226,006	43,41
226,556	41,75
227,106	47,77
227,655	50,53
228,204	42,26
228,754	46,61
229,303	45,49
229,852	44,06
230,401	40,09
230,949	45,05
231,498	41,11
232,047	48,18
232,595	41,21
233,143	39,21
233,691	49,18
234,239	39,29
234,787	37,5
235,335	48,39
235,883	45,03
236,43	38,43
236,978	38,19
237,525	41,29
238,072	46,19
238,619	50,93
239,166	46,14
239,713	40,79
240,26	46,68
240,806	51,73
241,353	43,45
241,899	48,46
242,445	41,03
242,991	42,73
243,537	47,07
244,083	41,91
244,629	41,74
245,174	43,67
245,72	48,89
246,265	34,73
246,81	48,08
247,355	53,65
247,9	53,39
248,445	34,33
248,99	42,71
249,534	47,62
250,079	43,11
250,623	43,96
251,168	44,97
251,712	43,87
252,256	45,38
252,8	42,7
253,343	45,73
253,887	38,72
254,43	47
254,974	46,82
255,517	42,64
256,06	50,55
256,603	48,64
257,146	46,87
257,689	39,18
258,232	38,55
258,774	41,83
259,317	52,82
259,859	43,28
260,401	45,89
260,943	46,44
261,485	40,44
262,027	51,64
262,569	48
263,11	50,21
263,652	39,06
264,193	39,91
264,734	39,45
265,275	43,43
265,816	43,74
266,357	43,08
266,898	31,28
267,438	35,78
267,979	36,28
268,519	50,11
269,059	42,52
269,6	43,57
270,14	44,14
270,68	44,49
271,219	38,82
271,759	45,17
272,298	39,64
272,838	49,08
273,377	42,59
273,916	46,31
274,455	39,42
274,994	34,36
275,533	40,18
276,072	38,84
276,61	51,1
277,149	41,75
277,687	40,73
278,225	33,71
278,763	44,8
279,301	44,22
279,839	52,69
280,377	41,47
280,914	47,33
281,452	48,39
281,989	40
282,526	43,13
283,064	33,67
283,601	36,19
284,137	40
284,674	42,96
285,211	46,19
285,747	46,78
286,284	42,69
286,82	41,23
287,356	39,07
287,892	42,18
288,428	36,05
288,964	50,82
289,5	40,9
290,035	38,85
290,571	47,07
291,106	38,37
291,641	43,64
292,176	44,5
292,711	40,57
293,246	45,41
293,781	41,99
294,315	40,15
294,85	39,16
295,384	41,35
295,918	40,44
296,453	45,75
296,987	37,68
297,52	41,89
298,054	45,41
298,588	41,09
299,121	41,24
299,655	43,67
300,188	41
300,721	43,95
301,254	47,72
301,787	37,05
302,32	42,86
302,853	36,34
303,385	38,33
303,918	37,86
304,45	44,74
304,982	35,78
305,514	39,58
306,046	40,7
306,578	39,82
307,11	30,54
307,641	39,29
308,173	45
308,704	49,55
309,236	40,88
309,767	43,06
310,298	48,34
310,829	44,6
311,359	45,56
311,89	41,31
312,421	40,13
312,951	48,84
313,481	40,55
314,012	36,24
314,542	43,29
315,072	42,46
315,601	48,2
316,131	34,32
316,661	41,3
317,19	40,95
317,72	44,29
318,249	38,83
318,778	42,16
319,307	39,06
319,836	43,19
320,365	39,63
320,893	45,48
321,422	41,24
321,95	37,11
322,479	36,57
323,007	47,83
323,535	38,84
324,063	43,03
324,591	44,44
325,118	42,64
325,646	35,38
326,173	34,02
326,701	47,38
327,228	34,55
327,755	37,56
328,282	45,99
328,809	36,87
329,336	39,95
329,862	40,23
330,389	40,23
330,915	31,36
331,441	33,57
331,968	43,13
332,494	39
333,02	38,06
333,545	42,05
334,071	34,6
334,597	40,38
335,122	37,42
335,648	34,79
336,173	36,66
336,698	39,45
337,223	40,35
337,748	41,18
338,272	38,28
338,797	40,78
339,322	40,95
339,846	35,11
340,37	37,97
340,894	38,53
341,419	34,66
341,942	33,27
342,466	43,84
342,99	44,81
343,514	34,8
344,037	39,2
344,56	33
345,084	39,39
345,607	32,85
346,13	37,79
346,653	35,8
347,175	38,22
347,698	45,38
348,221	39,66
348,743	37,55
349,265	35,3
349,787	37,37
350,309	40,85
350,831	35,34
351,353	44,92
351,875	34,56
352,397	36,67
352,918	40,96
353,439	37,94
353,961	44,2
354,482	32,66
355,003	34,7
355,524	34,3
356,044	40,45
356,565	35,26
357,086	39,13
357,606	41,03
358,126	38,13
358,646	41,38
359,167	38,96
359,687	42,77
360,206	36,93
360,726	42,32
361,246	44,85
361,765	37,73
362,285	40,8
362,804	34,1
363,323	40,31
363,842	41,39
364,361	38,24
364,88	38,82
365,398	43,55
365,917	41,46
366,435	34,83
366,954	38,15
367,472	36,84
367,99	38,52
368,508	41,19
369,026	41,86
369,544	39,76
370,061	38,97
370,579	39,41
371,096	41,39
371,613	40,05
372,131	38,75
372,648	32,4
373,165	40,6
373,681	40,35
374,198	41,54
374,715	40,28
375,231	42,41
375,747	38,67
376,264	39,86
376,78	42,11
377,296	38,48
377,812	42,17
378,327	35,96
378,843	36,26
379,359	38,52
379,874	38,04
380,389	40,02
380,905	39,1
381,42	37,1
381,935	33,36
382,449	38,74
382,964	32,92
383,479	35,59
383,993	34,39
384,508	36,21
385,022	37,77
385,536	34,93
386,05	34,52
386,564	31,73
387,078	32,21
387,592	35,49
388,105	33,54
388,619	32,18
389,132	33,03
389,645	33,97
390,158	34,44
390,671	31,26
391,184	31,26
391,697	29,11
392,21	30,83
392,722	27,67
393,235	29,79
393,747	27,27
394,259	30,56
394,771	29,97
395,283	28,05
395,795	26,42
396,307	28,95
396,818	27,72
397,33	29,05
397,841	27,7
398,353	29,36
398,864	28,69
399,375	27,48
399,886	26,91
400,397	25,71
400,907	26,35
401,418	25,69
401,928	24,72
402,439	24,07
402,949	25,35
403,459	23,31
403,969	23,32
404,479	24,14
404,989	22,41
405,498	21,93
406,008	20,51
406,517	21,11
407,027	21,11
407,536	19,45
408,045	18,55
408,554	18,88
409,063	18,9
409,572	16,39
410,08	16,51
410,589	16,35
411,097	16,12
411,606	16,79
412,114	16,11
412,622	14,91
413,13	15,08
413,638	13,9
414,145	14,46
414,653	14,08
415,16	13,33
415,668	13,7
416,175	12,78
416,682	12,56
417,189	12,44
417,696	12,6
418,203	12,1
418,71	11,42
419,216	12,03
419,723	12,32
420,229	12,15
420,735	10,83
421,242	11,68
421,748	11,26
422,254	10,91
422,759	10,49
423,265	10,81
423,771	11,3
424,276	10,84
424,781	10,49
425,287	10,86
425,792	10,58
426,297	9,96
426,802	10,43
427,306	10,06
427,811	10,43
428,316	10,01
428,82	10,1
429,324	10,38
429,829	9,82
430,333	10,87
430,837	10,26
431,34	10,07
431,844	9,65
432,348	9,85
432,851	9,79
433,355	10,33
433,858	10,21
434,361	9,49
434,864	9,85
435,367	9,85
435,87	9,34
436,373	9,55
436,876	9,41
437,378	9,9
437,88	9,46
438,383	9,45
438,885	9,56
439,387	9,81
439,889	9,77
440,391	10,41
440,892	9,82
441,394	9,86
441,896	9,67
442,397	9,64
442,898	9,3
443,399	10,09
443,9	10,31
444,401	9,7
444,902	9,85
445,403	9,72
445,903	10,17
446,404	10,02
446,904	9,86
447,405	9,41
447,905	9,69
448,405	9,57
448,905	9,95
449,404	10,2
449,904	10,03
450,404	9,42
450,903	10,11
451,403	10,21
451,902	9,93
452,401	9,67
452,9	9,95
453,399	9,92
453,898	10,46
454,396	10,47
454,895	10,2
455,393	10,41
455,892	10,52
456,39	10,35
456,888	10,66
457,386	10,2
457,884	10,32
458,382	10,35
458,879	10,4
459,377	10,11
459,874	10,13
460,372	10,3
460,869	10,7
461,366	10,49
461,863	10,32
462,36	9,97
462,857	10,14
463,353	10,14
463,85	10,27
464,346	10,5
464,843	10,52
465,339	10,45
465,835	10,17
466,331	10,52
466,827	10
467,323	10,23
467,818	10,43
468,314	10,2
468,809	10,65
469,305	10,36
469,8	10,76
470,295	10,46
470,79	10,45
471,285	10,2
471,78	10,08
472,274	10,44
472,769	9,73
473,263	10,53
473,758	10,31
474,252	10,27
474,746	10,45
475,24	10,59
475,734	10,31
476,228	10,49
476,721	10,1
477,215	10,52
477,708	10,72
478,202	10,67
478,695	10,85
479,188	10,24
479,681	10,39
480,174	10,28
480,667	10,59
481,159	10,45
481,652	10,57
482,144	10,83
482,637	10,6
483,129	10,91
483,621	10,64
484,113	10,74
484,605	10,62
485,097	10,7
485,588	10,96
486,08	10,37
486,571	10,82
487,063	10,92
487,554	11,19
488,045	10,73
488,536	11,02
489,027	10,97
489,518	11,01
490,008	11,22
490,499	11,11
490,989	11,34
491,48	11,36
491,97	11,37
492,46	11,47
492,95	11,62
493,44	11,37
493,93	11,63
494,419	11,67
494,909	11,6
495,398	11,93
495,888	12,01
496,377	11,76
496,866	11,84
497,355	12,18
497,844	12,11
498,333	12,28
498,821	12,4
499,31	12,6
499,798	12,44
500,287	12,83
500,775	13,15
501,263	12,85
501,751	13,22
502,239	13,37
502,727	13,49
503,215	13,55
503,702	13,71
504,19	14,12
504,677	13,88
505,164	14,55
505,651	15,04
506,139	15,13
506,625	15,05
507,112	15,24
507,599	15,45
508,086	15,42
508,572	15,63
509,058	16,01
509,545	16,37
510,031	16,83
510,517	16,89
511,003	17,61
511,489	17,66
511,974	18,06
512,46	18,13
512,946	18,4
513,431	18,51
513,916	18,87
514,401	19,35
514,887	19,71
515,371	19,92
515,856	20,57
516,341	20,48
516,826	21,22
517,31	21,5
517,795	21,68
518,279	21,97
518,763	22,8
519,247	22,93
519,731	23,08
520,215	23,85
520,699	23,85
521,182	23,93
521,666	24,73
522,149	24,76
522,633	25,44
523,116	25,6
523,599	26,24
524,082	26,4
524,565	26,63
525,048	27,02
525,53	26,82
526,013	27,37
526,495	28,02
526,978	28,23
527,46	28,6
527,942	29,07
528,424	29,09
528,906	29,34
529,388	29,37
529,87	29,03
530,351	29,72
530,833	30,13
531,314	30,36
531,795	30,5
532,277	30,38
532,758	30,99
533,238	30,8
533,719	30,53
534,2	31
534,681	31,4
535,161	31,16
535,642	31,27
536,122	31,67
536,602	31,6
537,082	32,33
537,562	31,88
538,042	31,5
538,522	31,71
539,001	31,71
539,481	32,38
539,96	31,95
540,44	32,45
540,919	32,44
541,398	32,4
541,877	32,4
542,356	32,28
542,835	32,36
543,313	32,73
543,792	32,23
544,27	32,46
544,749	32,22
545,227	32,56
545,705	33,06
546,183	32,79
546,661	32,61
547,139	33,09
547,616	32,91
548,094	33,07
548,571	32,85
549,049	32,79
549,526	33,15
550,003	33,24
550,48	32,91
550,957	33,26
551,434	32,75
551,911	33,07
552,387	33,04
552,864	33,04
553,34	33,02
553,817	33,05
554,293	33,38
554,769	33,11
555,245	33,57
555,721	33,46
556,197	33,08
556,672	33,12
557,148	33,14
557,623	33,36
558,099	32,53
558,574	33,51
559,049	32,72
559,524	32,49
559,999	32,8
560,474	32,93
560,948	32,42
561,423	32,68
561,897	32,61
562,372	32,29
562,846	32,54
563,32	31,92
563,794	32,38
564,268	31,96
564,742	31,62
565,216	31,98
565,69	31,64
566,163	31,52
566,636	31,03
567,11	31,19
567,583	30,86
568,056	30,79
568,529	30,53
569,002	30,41
569,475	30,67
569,947	30,09
570,42	29,8
570,892	29,99
571,365	30,08
571,837	29,74
572,309	29,43
572,781	29,2
573,253	29,14
573,725	28,51
574,197	28,62
574,668	28,11
575,14	28,17
575,611	27,94
576,082	27,47
576,554	27,73
577,025	27,48
577,496	27,2
577,967	27,22
578,437	26,94
578,908	26,65
579,379	26,67
579,849	26,44
580,319	26,12
580,79	26,19
581,26	26,09
581,73	26,06
582,2	25,93
582,669	25,48
583,139	25,66
583,609	25,8
584,078	25,34
584,548	25,27
585,017	24,84
585,486	24,87
585,955	24,56
586,424	24,68
586,893	24,54
587,362	24,4
587,83	24,71
588,299	24,69
588,767	24,5
589,236	24,41
589,704	24,17
590,172	23,94
590,64	23,71
591,108	23,88
591,576	23,71
592,043	23,94
592,511	23,7
592,978	23,41
593,446	23,48
593,913	23,58
594,38	23,65
594,847	23,11
595,314	23,13
595,781	23,42
596,248	23,17
596,715	23,13
597,181	23,46
597,647	23,21
598,114	23,07
598,58	22,84
599,046	22,95
599,512	22,83
599,978	22,83
600,444	22,74
600,91	22,86
601,375	22,46
601,841	22,63
602,306	22,68
602,771	22,6
603,236	22,64
603,702	22,2
604,167	22,27
604,631	22,39
605,096	22,41
605,561	22,29
606,025	22,2
606,49	21,76
606,954	22
607,418	21,82
607,882	22,02
608,347	21,49
608,81	21,34
609,274	21,21
609,738	21,33
610,202	21,27
610,665	21,25
611,128	20,83
611,592	21,12
612,055	20,78
612,518	20,44
612,981	20,56
613,444	20,62
613,907	20,39
614,369	20,32
614,832	19,97
615,294	20,13
615,757	20,11
616,219	19,83
616,681	19,67
617,143	19,69
617,605	19,68
618,067	19,36
618,529	19,21
618,99	19,3
619,452	19,27
619,913	19,22
620,375	19
620,836	19
621,297	18,86
621,758	18,87
622,219	18,7
622,68	18,85
623,14	18,45
623,601	18,39
624,061	18,43
624,522	18,65
624,982	18,39
625,442	18,32
625,902	18,38
626,362	18,4
626,822	18,49
627,282	18,09
627,742	18,24
628,201	18,25
628,661	18,17
629,12	18,29
629,579	18,08
630,038	17,94
630,497	18,23
630,956	18,3
631,415	18,07
631,874	18,08
632,332	17,87
632,791	17,91
633,249	17,94
633,708	17,78
634,166	17,72
634,624	17,75
635,082	17,76
635,54	17,45
635,998	17,51
636,455	17,42
636,913	17,04
637,37	17,03
637,828	17,05
638,285	16,96
638,742	16,59
639,199	16,52
639,656	16,29
640,113	16,25
640,57	16,05
641,027	16,15
641,483	15,72
641,94	15,86
642,396	15,64
642,852	15,44
643,309	15,3
643,765	15,21
644,221	15,08
644,676	14,82
645,132	14,79
645,588	14,38
646,043	14,44
646,499	14,13
646,954	14,01
647,409	14,05
647,864	13,91
648,319	13,8
648,774	13,61
649,229	13,56
649,684	13,52
650,139	13,28
650,593	13,32
651,047	13,33
651,502	13,22
651,956	13,29
652,41	12,88
652,864	12,98
653,318	13,05
653,772	12,9
654,225	12,9
654,679	12,8
655,133	12,53
655,586	12,59
656,039	12,55
656,492	12,45
656,946	12,42
657,399	12,43
657,851	12,32
658,304	12,28
658,757	12,19
659,209	12,02
659,662	11,82
660,114	11,8
660,567	11,68
661,019	11,61
661,471	11,49
661,923	11,48
662,375	11,42
662,826	11,34
663,278	11,16
663,73	11,03
664,181	11,06
664,632	10,88
665,084	10,85
665,535	10,82
665,986	10,88
666,437	10,76
666,888	10,71
667,338	10,68
667,789	10,7
668,24	10,69
668,69	10,57
669,14	10,65
669,591	10,83
670,041	10,49
670,491	10,63
670,941	10,75
671,391	10,82
671,84	10,74
672,29	10,8
672,74	10,87
673,189	11,03
673,638	11,17
674,088	11,19
674,537	11,21
674,986	11,15
675,435	11,15
675,883	11,46
676,332	11,53
676,781	11,45
677,229	11,64
677,678	11,84
678,126	11,92
678,574	12,09
679,022	12,21
679,47	12,07
679,918	12,43
680,366	12,4
680,814	12,58
681,261	12,8
681,709	13,01
682,156	12,97
682,604	13,36
683,051	13,41
683,498	13,52
683,945	13,7
684,392	13,72
684,839	13,81
685,286	14,12
685,732	14,42
686,179	14,49
686,625	14,86
687,071	14,97
687,518	15,28
687,964	15,41
688,41	15,76
688,856	16,04
689,301	16,37
689,747	16,51
690,193	17,09
690,638	17,6
691,084	17,96
691,529	18,1
691,974	18,93
692,419	19,45
692,864	20,02
693,309	20,36
693,754	21,03
694,199	21,58
694,643	21,91
695,088	22,6
695,532	23,27
695,977	23,88
696,421	24,28
696,865	24,99
697,309	25,45
697,753	26,11
698,197	26,67
698,64	27,25
699,084	27,9
699,527	28,53
699,971	29
700,414	29,54
700,857	30,01
701,3	30,55
701,743	31,15
702,186	31,69
702,629	32,12
703,072	32,46
703,515	32,82
703,957	33,44
704,399	33,89
704,842	34,37
705,284	34,64
705,726	34,84
706,168	35,64
706,61	35,9
707,052	36,34
707,494	36,52
707,935	36,77
708,377	37,24
708,818	37,49
709,26	38,28
709,701	37,97
710,142	38,55
710,583	38,96
711,024	39,15
711,465	39,42
711,905	40,09
712,346	40,23
712,787	40,43
713,227	40,43
713,667	40,93
714,108	41,36
714,548	41,71
714,988	41,78
715,428	42,15
715,868	42,23
716,307	42,72
716,747	42,5
717,186	43,01
717,626	43,47
718,065	43,46
718,504	43,71
718,944	43,85
719,383	44,09
719,822	44,44
720,261	44,46
720,699	44,78
721,138	44,99
721,576	45,14
722,015	45,27
722,453	45,32
722,892	45,71
723,33	45,59
723,768	45,71
724,206	46,09
724,644	46,35
725,081	46,84
725,519	46,52
725,957	46,57
726,394	46,91
726,832	46,83
727,269	46,81
727,706	47,51
728,143	46,94
728,58	47,44
729,017	47,26
729,454	47,56
729,89	47,44
730,327	47,47
730,764	47,79
731,2	47,5
731,636	47,66
732,072	48,03
732,509	47,94
732,945	48,06
733,38	47,92
733,816	48,02
734,252	48,09
734,688	48,15
735,123	48,52
735,559	48,08
735,994	48,29
736,429	48,76
736,864	48,35
737,299	48,25
737,734	48,49
738,169	48,22
738,604	48,49
739,038	48,59
739,473	48,86
739,907	48,59
740,342	48,59
740,776	48,63
741,21	48,52
741,644	48,36
742,078	48,18
742,512	48,55
742,946	48,34
743,379	48,41
743,813	48,44
744,246	48,23
744,68	48,26
745,113	48,25
745,546	48,24
745,979	48,46
746,412	48,46
746,845	48,2
747,278	48,44
747,711	48,12
748,143	48,18
748,576	48,38
749,008	48,02
749,441	48,33
749,873	48,07
750,305	47,97
750,737	48,02
751,169	48,05
751,601	48
752,032	47,51
752,464	47,89
752,896	47,92
753,327	48,07
753,758	47,98
754,19	47,88
754,621	47,79
755,052	47,69
755,483	47,42
755,914	47,21
756,344	47,45
756,775	47,34
757,206	47,34
757,636	47,43
758,066	47,4
758,497	47,03
758,927	47,02
759,357	47,19
759,787	47,01
760,217	46,94
760,647	47,38
761,076	47,44
761,506	47,08
761,935	47,02
762,365	47,06
762,794	46,87
763,223	46,9
763,653	46,7
764,082	46,74
764,51	46,53
764,939	46,83
765,368	46,45
765,797	46,79
766,225	46,61
766,654	46,62
767,082	46,68
767,51	46,59
767,938	46,5
768,367	46,47
768,795	46,59
769,222	46,23
769,65	46,41
770,078	46,35
770,505	46,17
770,933	46,15
771,36	46,19
771,788	46,38
772,215	46,32
772,642	46,06
773,069	46,19
773,496	46,25
773,923	46,28
774,349	46,3
774,776	46,5
775,203	46,02
775,629	46,14
776,055	45,95
776,482	45,88
776,908	46,09
777,334	45,95
777,76	45,91
778,186	46,04
778,611	45,84
779,037	45,9
779,463	45,77
779,888	45,76
780,314	45,88
780,739	45,7
781,164	46,04
781,589	45,76
782,014	45,54
782,439	45,71
782,864	45,94
783,289	45,74
783,713	45,42
784,138	45,73
784,562	45,88
784,987	45,68
785,411	45,61
785,835	45,53
786,259	45,66
786,683	45,73
787,107	45,47
787,531	45,97
787,954	45,71
788,378	45,64
788,802	45,37
789,225	45,68
789,648	45,67
790,071	45,58
790,495	45,59
790,918	45,57
791,34	45,64
791,763	45,57
792,186	45,45
792,609	45,57
793,031	45,21
793,454	45,7
793,876	45,5
794,298	45,15
794,721	45,37
795,143	45,08
795,565	45,53
795,986	45,15
796,408	45,35
796,83	45,41
797,252	45,01
797,673	45,27
798,094	45,14
798,516	45,23
798,937	45,12
799,358	45,2
799,779	45,38
800,2	45,21
800,621	45,41
801,042	45,15
801,462	45,38
801,883	45,1
802,303	44,99
802,724	45,21
803,144	45,34
803,564	45,27
803,984	45,25
804,404	45,1
804,824	45,3
805,244	45,24
805,664	45,2
806,084	45,34
806,503	45,21
806,923	45,03
807,342	45,11
807,761	45,24
808,18	44,98
808,599	45,36
809,018	45,04
809,437	45,12
809,856	45,05
810,275	45,11
810,693	45,35
811,112	45,17
811,53	44,82
811,949	45,47
812,367	45,17
812,785	44,89
813,203	45,24
813,621	44,98
814,039	44,84
814,457	45,11
814,874	45,12
815,292	45,22
815,709	45,03
816,127	45,39
816,544	45,29
816,961	45
817,378	45,32
817,795	44,82
818,212	44,96
818,629	45,11
819,046	44,59
819,462	44,98
819,879	44,96
820,295	45,01
820,712	44,97
821,128	45,04
821,544	44,83
821,96	45,22
822,376	45,1
822,792	45,06
823,208	45,06
823,624	44,91
824,039	44,98
824,455	44,59
824,87	45,11
825,286	45,13
825,701	44,65
826,116	45,1
826,531	44,8
826,946	45,06
827,361	44,79
827,776	45,05
828,19	44,77
828,605	45,1
829,02	44,88
829,434	44,78
829,848	44,99
830,263	44,89
830,677	44,89
831,091	44,93
831,505	44,85
831,919	45,16
832,332	44,75
832,746	44,39
833,16	44,51
833,573	44,84
833,987	44,89
834,4	44,63
834,813	44,89
835,226	44,89
835,639	44,58
836,052	44,57
836,465	44,85
836,878	44,61
837,29	44,68
837,703	44,54
838,116	44,94
838,528	44,63
838,94	44,66
839,352	44,67
839,765	44,54
840,177	44,78
840,589	44,56
841	44,74
841,412	44,86
841,824	44,31
842,235	44,69
842,647	44,34
843,058	44,83
843,47	44,83
843,881	44,65
844,292	44,89
844,703	44,87
845,114	44,62
845,525	45,07
845,935	44,69
846,346	44,77
846,757	44,67
847,167	44,84
847,577	44,45
847,988	44,23
848,398	44,63
848,808	44,54
849,218	44,77
849,628	44,68
850,038	44,54
850,448	44,95
850,857	44,27
851,267	44,29
851,676	44,62
852,086	44,33
852,495	44,85
852,904	44,48
853,313	44,96
853,722	45,04
854,131	44,57
854,54	44,68
854,949	44,51
855,357	44,49
855,766	44,49
856,174	44,77
856,583	44,42
856,991	44,73
857,399	44,21
857,807	44,49
858,215	44,45
858,623	44,67
859,031	44,39
859,439	44,75
859,846	44,37
860,254	44,69
860,661	44,46
861,069	44,27
861,476	44,42
861,883	44,74
862,29	44,52
862,697	44,38
863,104	44,6
863,511	44,38
863,918	44,58
864,325	44,47
864,731	44,39
865,138	44,49
865,544	44,32
865,95	44,56
866,357	45,09
866,763	44,44
867,169	43,96
867,575	44,27
867,98	44,15
868,386	44,48
868,792	44,5
869,197	44,34
869,603	44,21
870,008	44,41
870,414	44,62
870,819	44,33
871,224	44,41
871,629	44,41
872,034	44,27
872,439	44,55
872,844	44,27
873,248	44,6
873,653	44,44
874,057	44,53
874,462	44,4
874,866	44,51
875,27	44,25
875,674	44,43
876,078	44,54
876,482	44,22
876,886	44,3
877,29	44,27
877,694	44,06
878,097	44,44
878,501	44,48
878,904	44,16
879,308	44,24
879,711	44,18
880,114	44,45
880,517	43,98
880,92	44,15
881,323	43,91
881,726	44,35
882,128	44,16
882,531	43,92
882,934	44,15
883,336	44,07
883,738	44,33
884,141	43,98
884,543	44,33
884,945	44,12
885,347	44,02
885,749	43,85
886,151	43,96
886,552	43,79
886,954	44,35
887,355	43,98
887,757	44,46
888,158	43,92
888,56	44,04
888,961	44,24
889,362	44,13
889,763	44,02
890,164	44,1
890,565	43,9
890,965	43,89
891,366	44,2
891,767	44,01
892,167	43,74
892,567	44,21
892,968	44,17
893,368	44,11
893,768	43,98
894,168	44,01
894,568	44,36
894,968	44,33
895,368	44,12
895,767	44,08
896,167	44,1
896,566	44,12
896,966	44,19
897,365	44,13
897,764	44,07
898,164	44,28
898,563	44,28
898,962	43,67
899,361	44,27
899,759	44,09
900,158	44,08
900,557	44,03
900,955	43,87
901,354	44,03
901,752	44,16
902,15	43,73
902,548	44,25
902,947	44,02
903,345	44,18
903,742	44,7
904,14	44,23
904,538	43,79
904,936	43,97
905,333	43,86
905,731	44,02
906,128	43,6
906,525	43,84
906,923	44,25
907,32	43,9
907,717	43,88
908,114	44,04
908,511	44,18
908,907	43,67
909,304	43,84
909,701	44,22
910,097	43,89
910,494	43,92
910,89	44,12
911,286	43,83
911,682	43,89
912,078	44,1
912,474	44,03
912,87	43,81
913,266	44,02
913,662	43,82
914,058	44,14
914,453	44,29
914,849	44,22
915,244	43,91
915,639	43,73
916,034	43,86
916,43	44
916,825	43,87
917,22	44,04
917,614	43,68
918,009	43,75
918,404	44,04
918,798	43,98
919,193	43,95
919,587	44,08
919,982	43,99
920,376	43,96
920,77	43,91
921,164	43,76
921,558	44,03
921,952	44,01
922,346	43,92
922,74	44,39
923,133	43,96
923,527	43,76
923,92	44,33
924,314	43,76
924,707	43,43
925,1	43,72
925,493	43,78
925,886	44,29
926,279	44,02
926,672	43,73
927,065	43,59
927,457	43,32
927,85	43,74
928,243	43,69
928,635	44,06
929,027	43,67
929,42	43,68
929,812	44,04
930,204	44,05
930,596	43,91
930,988	43,75
931,379	43,25
931,771	43,99
932,163	43,92
932,554	44,09
932,946	43,93
933,337	43,51
933,729	43,56
934,12	43,92
934,511	43,57
934,902	43,94
935,293	43,44
935,684	43,55
936,075	43,72
936,465	43,52
936,856	43,44
937,246	43,96
937,637	43,43
938,027	43,21
938,417	43,52
938,808	43,75
939,198	43,27
939,588	43,47
939,978	43,66
940,368	43,86
940,757	43,32
941,147	43,46
941,537	43,61
941,926	43,3
942,315	43,78
942,705	42,91
943,094	43,92
943,483	43,81
943,872	43,52
944,261	43,39
944,65	43,59
945,039	43,11
945,428	42,66
945,816	43,53
946,205	42,97
946,593	43,29
946,982	43,34
947,37	43,76
947,758	43,35
948,146	43,29
948,534	43,89
948,922	43,18
949,31	43,19
949,698	43,28
950,086	43,57
950,473	43,05
950,861	42,77
951,248	43,35
951,636	42,49
952,023	42,78
952,41	42,75
952,797	43,01
953,184	43,07
953,571	43,21
953,958	43,12
954,345	42,98
954,731	42,28
955,118	43,14
955,505	43,32
955,891	42,91
956,277	42,88
956,664	42,61
957,05	42,92
957,436	42,73
957,822	42,7
958,208	43,17
958,594	42,6
958,979	43,13
959,365	42,87
959,751	42,65
960,136	42,87
960,522	42,48
960,907	42,55
961,292	42,86
961,677	43,05
962,062	42,76
962,447	42,87
962,832	42,22
963,217	42,78
963,602	42,77
963,986	42,52
964,371	42,57
964,756	42,51
965,14	43,08
965,524	42,47
965,908	42,88
966,293	42,51
966,677	42,24
967,061	42,95
967,445	42,5
967,828	43,06
968,212	42,91
968,596	42,71
968,979	42,55
969,363	42,84
969,746	42,75
970,129	42,61
970,513	42,6
970,896	42,73
971,279	42,31
971,662	42,58
972,045	42,75
972,428	42,99
972,81	42,64
973,193	42,55
973,575	42,64
973,958	42,6
974,34	42,93
974,723	42,84
975,105	42,69
975,487	42,62
975,869	42,61
976,251	42,81
976,633	42,59
977,015	43,36
977,396	42,46
977,778	43
978,16	42,3
978,541	42,69
978,922	42,44
979,304	42,55
979,685	42,49
980,066	42,29
980,447	42,61
980,828	42,52
981,209	42,89
981,59	43,12
981,97	42,47
982,351	42,8
982,732	42,23
983,112	43,15
983,493	42,53
983,873	42,99
984,253	42,26
984,633	42,74
985,013	42,31
985,393	42,7
985,773	42,3
986,153	42,5
986,533	42,33
986,912	42,19
987,292	42,56
987,671	42,15
988,051	43,09
988,43	43,28
988,809	43,22
989,188	42,91
989,567	42,21
989,946	42,86
990,325	42,91
990,704	42,44
991,083	43,21
991,461	42,66
991,84	42,66
992,218	41,72
992,597	43,2
992,975	42,91
993,353	42,83
993,732	43,24
994,11	42,77
994,488	43,07
994,866	42,43
995,243	43,04
995,621	42,83
995,999	42,53
996,376	43,13
996,754	42,14
997,131	43,22
997,509	42,48
997,886	42,72
998,263	42,48
998,64	42,71
999,017	42,95
999,394	43,02
999,771	43,18
1000,148	43,2
1000,524	42,83
1000,901	42,45
1001,277	42,3
1001,654	42,38
1002,03	43,19
1002,406	43,02
1002,783	42,66
1003,159	43,43
1003,535	43,09
1003,911	42,8
1004,286	42,37
1004,662	42,72
1005,038	42,38
1005,414	43,22
1005,789	42,36
1006,164	42,61
1006,54	43,14
1006,915	43,04
1007,29	42,66
1007,665	43,16
1008,04	42,34
1008,415	43,21
1008,79	42,79
1009,165	42,05
1009,54	42,99
1009,914	43,28
1010,289	42,83
1010,663	42,81
1011,038	42,66
1011,412	43,47
1011,786	42,85
1012,16	43,21
1012,535	43,15
1012,909	42,83
1013,282	42,97
1013,656	42,41
1014,03	42,87
1014,404	42,89
1014,777	42,45
1015,151	42,56
1015,524	43,67
1015,897	44,04
1016,271	42,84
1016,644	43,17
1017,017	43,19
1017,39	42,36
1017,763	42,69
1018,136	43,06
1018,508	42,98
1018,881	43,07
1019,254	42,91
1019,626	42,75
1019,999	42,71
1020,371	42,9
1020,743	42,76
1021,116	42,97
1021,488	43
1021,86	43,05
1022,232	43,44
1022,604	43,04
1022,975	43,19
1023,347	43,24
1023,719	43,48
1024,09	42,63
1024,462	42,79
1024,833	42,62
1025,204	42,79
1025,576	43,07
1025,947	43,06
1026,318	43,11
1026,689	42,67
1027,06	43,42
1027,431	43,29
1027,801	42,22
1028,172	42,62
1028,543	42,9
1028,913	43,12
1029,284	43,03
1029,654	42,59
1030,024	42,75
1030,394	42,58
1030,764	42,93
1031,135	43,11
1031,504	42,06
1031,874	42,85
1032,244	43,39
1032,614	42,69
1032,983	42,84
1033,353	43,21
1033,722	43
1034,092	43,17
1034,461	42,41
1034,83	43,1
1035,2	43,28
1035,569	43,74
1035,938	42,65
1036,307	43,17
1036,675	43,22
1037,044	42,91
1037,413	43,1
1037,781	43,01
1038,15	43,46
1038,518	42,82
1038,887	43,69
1039,255	43,64
1039,623	43,45
1039,991	41,93
1040,359	43,45
1040,727	43,96
1041,095	42,59
1041,463	43,43
1041,831	43,08
1042,198	42,82
1042,566	42,64
1042,933	43,29
1043,301	42,79
1043,668	42,74
1044,035	42,91
1044,402	43,13
1044,77	42,33
1045,137	42,51
1045,503	43,45
1045,87	42,99
1046,237	42,56
1046,604	43,82
1046,97	43,79
1047,337	43,05
1047,703	42,54
1048,07	43,53
1048,436	42,88
1048,802	42,86
1049,168	44,27
1049,534	43,58
1049,9	43,71
1050,266	43,32
1050,632	42,68
1050,998	43,09
1051,364	43,12
1051,729	43,72
1052,095	43,46
1052,46	42,04
1052,825	42,51
1053,191	42,93
1053,556	43,9
1053,921	42,61
1054,286	43,07
1054,651	44,03
1055,016	43,18
1055,381	43,51
1055,745	43,77
1056,11	42,75
1056,475	43,28
1056,839	42,8
1057,203	43,24
1057,568	43,11
1057,932	42,55
1058,296	43,48
1058,66	43,9
1059,024	43,2
1059,388	42,95
1059,752	43,56
1060,116	43,92
1060,48	43,24
1060,843	44,12
1061,207	43,1
1061,57	43,98
1061,934	43,62
1062,297	42,51
1062,66	42,53
1063,023	42,89
1063,386	43,27
1063,749	42,92
1064,112	42,85
1064,475	42,52
1064,838	41,95
1065,201	42,89
1065,563	43,06
1065,926	41,94
1066,288	42,93
1066,651	43,95
1067,013	42,26
1067,375	43,51
1067,737	42,49
1068,099	43,14
1068,461	43,39
1068,823	42,45
1069,185	42,21
1069,547	42,45
1069,909	42,14
1070,27	41,79
1070,632	42,96
1070,993	42,59
1071,355	43,86
1071,716	43,48
1072,077	43,13
1072,438	42,4
1072,799	43,82
1073,16	43,38
1073,521	42,99
1073,882	42,24
1074,243	42,25
1074,603	42,29
1074,964	42,77
1075,325	43,82
1075,685	44,38
1076,045	43,57
1076,406	44,74
1076,766	42,07
1077,126	42,68
1077,486	41,85
1077,846	43,79
1078,206	42,03
1078,566	41,86
1078,925	43,07
1079,285	43,42
1079,645	43,35
1080,004	42,82
1080,364	43,87
1080,723	42,57
1081,082	42,18
1081,442	43,81
1081,801	41,7
1082,16	43,64
1082,519	44,22
1082,878	42,43
1083,237	43,49
1083,595	42,43
1083,954	43,29
1084,313	43,18
1084,671	43,63
1085,03	43,44
1085,388	43,95
1085,746	43,95
1086,104	42,03
1086,463	42,7
1086,821	43,23
1087,179	42,72
1087,537	42,65
1087,894	43,26
1088,252	42,4
1088,61	42,99
1088,967	43,47
1089,325	43,92
1089,682	41,32
1090,04	42,46
1090,397	44,06
1090,754	41,96
1091,111	41,58
1091,469	43,77
1091,826	43,31
1092,182	43,46
1092,539	43,93
1092,896	42,85
1093,253	42,16
1093,609	42,12
1093,966	44,01
1094,322	42,92
1094,679	43,86
1095,035	43,78
1095,391	44,02
1095,748	44,21
1096,104	44,29
1096,46	42,97
1096,816	44,65
1097,171	43,61
1097,527	42,29
1097,883	43,88
1098,239	43,91
1098,594	42,31
1098,95	42,9
1099,305	43,37
1099,66	43,72
1100,016	44,35
1100,371	41,35
1100,726	42,17
1101,081	43,91
1101,436	42,67
1101,791	42,74
1102,146	44,26
1102,5	43
1102,855	43,6
1103,21	45,93
1103,564	38,88
1103,918	43,04
1104,273	43,45
1104,627	45,45
1104,981	44,03
1105,335	44,9
1105,69	41,15
1106,043	44,74
1106,397	42,69
1106,751	41,72
1107,105	43,22
1107,459	40,21
1107,812	44,7
1108,166	41,94
1108,519	41,81
1108,873	42,19
1109,226	45,47
1109,579	42,82
1109,932	42,41
1110,285	41,49
1110,638	44,07
1110,991	41,6
1111,344	43,86
1111,697	43,82
1112,05	44,95
1112,402	42,59
1112,755	45,06
1113,107	42,61
1113,46	44,72
1113,812	41,88
1114,164	45,36
1114,517	45,08
1114,869	41,57
1115,221	42,19
1115,573	60,31
1115,924	44,13
