Data from G_4_0_Relative__5__00158.txt Node

Date: Mon Jan 29 13:06:39 CET 2024
User: diatiterra
Spectrometer: HDX00911
Trigger mode: 0
Integration Time (sec): 6,000000E-3
Scans to average: 2
Nonlinearity correction enabled: false
Boxcar width: 0
Storing dark spectrum: false
XAxis mode: Wavelengths
Number of Pixels in Spectrum: 2068
>>>>>Begin Spectral Data<<<<<
194,468	24,39
195,025	25,13
195,581	20,35
196,138	20,47
196,694	35,67
197,251	27,59
197,807	26,13
198,363	24,84
198,919	29,34
199,474	19,56
200,03	21,85
200,586	21,21
201,141	28,21
201,696	19,35
202,251	27,7
202,806	20,94
203,361	21,1
203,916	28,36
204,471	23,81
205,025	26,88
205,58	25,73
206,134	28,54
206,688	28,42
207,242	25,69
207,796	27,35
208,35	23,23
208,904	28,16
209,457	27,74
210,011	26
210,564	28,48
211,117	27,66
211,67	27,57
212,223	26,12
212,776	23,19
213,329	29,49
213,881	26,69
214,434	17,15
214,986	29,02
215,538	19,25
216,09	28,89
216,642	23,55
217,194	23,75
217,746	32,42
218,297	19,31
218,849	33,91
219,4	28,81
219,951	32,44
220,502	18,84
221,053	25
221,604	21,88
222,155	27,59
222,705	20,25
223,256	24,51
223,806	27,88
224,356	24,57
224,906	24,74
225,456	27,16
226,006	37,05
226,556	26,3
227,106	27,68
227,655	20,26
228,204	22,79
228,754	27,72
229,303	23,96
229,852	31,1
230,401	19,82
230,949	27,91
231,498	20,22
232,047	19,49
232,595	31,17
233,143	22,03
233,691	22,54
234,239	15,62
234,787	19,77
235,335	25,59
235,883	25,16
236,43	14,88
236,978	20,14
237,525	15,85
238,072	26,14
238,619	14,95
239,166	24,06
239,713	21,33
240,26	21,78
240,806	28,35
241,353	16,78
241,899	24,67
242,445	15,88
242,991	19,74
243,537	26,46
244,083	21,58
244,629	22,25
245,174	12,23
245,72	26,67
246,265	15,15
246,81	20,54
247,355	25,88
247,9	24,51
248,445	17,27
248,99	25,87
249,534	14,51
250,079	21,33
250,623	23,67
251,168	27,96
251,712	27,1
252,256	21,72
252,8	32,68
253,343	17,77
253,887	27,23
254,43	28,11
254,974	17,18
255,517	28,14
256,06	25,83
256,603	15,45
257,146	25,52
257,689	35,28
258,232	30,84
258,774	24,5
259,317	29,8
259,859	25,06
260,401	20,78
260,943	26
261,485	33,78
262,027	19,69
262,569	19,5
263,11	29,7
263,652	17,41
264,193	19,09
264,734	23,39
265,275	24,18
265,816	21,32
266,357	27,66
266,898	18,95
267,438	24,31
267,979	25,66
268,519	26,04
269,059	17,29
269,6	25,51
270,14	30,18
270,68	27,12
271,219	26,16
271,759	26,74
272,298	29,84
272,838	24,31
273,377	21,19
273,916	25,73
274,455	27,84
274,994	33,48
275,533	18,48
276,072	31,55
276,61	25,99
277,149	26,7
277,687	18,76
278,225	23,76
278,763	27,15
279,301	29,11
279,839	31,61
280,377	26,3
280,914	24,59
281,452	36,47
281,989	30,77
282,526	30,26
283,064	27,62
283,601	26,45
284,137	21,43
284,674	17,72
285,211	29,63
285,747	27,21
286,284	26,26
286,82	38,5
287,356	31,13
287,892	22,22
288,428	27,04
288,964	34,35
289,5	27,87
290,035	27,81
290,571	33,9
291,106	20,54
291,641	29,09
292,176	35,7
292,711	28,29
293,246	30,28
293,781	30,7
294,315	33,67
294,85	31,19
295,384	34,16
295,918	21,33
296,453	28,77
296,987	27,25
297,52	29,61
298,054	21,25
298,588	32,83
299,121	22,62
299,655	26,92
300,188	25,06
300,721	33,72
301,254	19,41
301,787	27,36
302,32	25,81
302,853	24,45
303,385	26,43
303,918	25,84
304,45	20,18
304,982	26,89
305,514	24,31
306,046	25,38
306,578	18,31
307,11	19,81
307,641	28,57
308,173	27,27
308,704	17,86
309,236	25,3
309,767	23,29
310,298	28,38
310,829	34,74
311,359	18,46
311,89	33,63
312,421	22,65
312,951	33,02
313,481	22,12
314,012	29,53
314,542	20,24
315,072	18,34
315,601	25,68
316,131	21,51
316,661	13,77
317,19	26,47
317,72	19,05
318,249	22,57
318,778	26,47
319,307	21,18
319,836	20,09
320,365	20,74
320,893	23,26
321,422	16,36
321,95	23,33
322,479	29,8
323,007	22,71
323,535	25,35
324,063	21,75
324,591	19,39
325,118	24,18
325,646	25
326,173	16,21
326,701	31,19
327,228	25,91
327,755	22,73
328,282	23,53
328,809	20,09
329,336	15,47
329,862	21,59
330,389	20
330,915	19,55
331,441	21,45
331,968	21,45
332,494	28,5
333,02	23,44
333,545	25,55
334,071	15,4
334,597	21,15
335,122	22,27
335,648	20,88
336,173	25,81
336,698	25,23
337,223	19,52
337,748	23,95
338,272	21,55
338,797	21,69
339,322	28,28
339,846	22,77
340,37	24,3
340,894	24,28
341,419	28,36
341,942	21,91
342,466	15,03
342,99	24,48
343,514	22,22
344,037	16
344,56	18,02
345,084	16,29
345,607	20,22
346,13	21,37
346,653	16,1
347,175	12,04
347,698	26,13
348,221	20,3
348,743	19,33
349,265	19,3
349,787	16,01
350,309	17,26
350,831	15
351,353	19,1
351,875	14,09
352,397	20,67
352,918	16,04
353,439	19,41
353,961	13,28
354,482	11,45
355,003	15,71
355,524	18,75
356,044	17,2
356,565	17,33
357,086	12,44
357,606	20,03
358,126	20,33
358,646	22,66
359,167	21,65
359,687	18,55
360,206	19,5
360,726	15,94
361,246	19,85
361,765	17,07
362,285	19,59
362,804	20,57
363,323	19,24
363,842	19,76
364,361	17,65
364,88	18,03
365,398	16,97
365,917	18,77
366,435	18,38
366,954	13,47
367,472	15,53
367,99	15,69
368,508	14,44
369,026	15,91
369,544	13,66
370,061	18,9
370,579	15,4
371,096	24,28
371,613	18,43
372,131	17,16
372,648	15,18
373,165	15,6
373,681	16,41
374,198	15,82
374,715	14,13
375,231	16,65
375,747	15,31
376,264	11,49
376,78	15,79
377,296	15,92
377,812	17,79
378,327	13,35
378,843	16,07
379,359	16,09
379,874	14,3
380,389	16,78
380,905	17,47
381,42	15,97
381,935	13
382,449	13,25
382,964	12,42
383,479	14,3
383,993	14,37
384,508	17,05
385,022	13,08
385,536	12,54
386,05	13,42
386,564	14,37
387,078	13,39
387,592	14,15
388,105	12,38
388,619	12,08
389,132	12,71
389,645	13,89
390,158	10,48
390,671	13,32
391,184	11,28
391,697	13,42
392,21	13,08
392,722	11
393,235	11,85
393,747	11,16
394,259	10,6
394,771	11,26
395,283	10,95
395,795	10,64
396,307	10,44
396,818	10,45
397,33	10,68
397,841	8,95
398,353	9,11
398,864	11,88
399,375	10,37
399,886	9,54
400,397	9,98
400,907	9,37
401,418	10,01
401,928	7,81
402,439	8,55
402,949	8,6
403,459	6,62
403,969	7,3
404,479	7,69
404,989	6,24
405,498	7,1
406,008	8,32
406,517	7,39
407,027	7,08
407,536	6,25
408,045	6,24
408,554	6,26
409,063	6,1
409,572	6,3
410,08	5,4
410,589	5,12
411,097	5,36
411,606	4,88
412,114	4,39
412,622	4,85
413,13	4,17
413,638	3,87
414,145	4,12
414,653	4,29
415,16	3,62
415,668	4,31
416,175	4,08
416,682	3,53
417,189	3,6
417,696	3,4
418,203	3,64
418,71	3,53
419,216	3,35
419,723	3,39
420,229	3,5
420,735	3,46
421,242	3,25
421,748	3,08
422,254	3,2
422,759	3,65
423,265	3,05
423,771	3,3
424,276	2,99
424,781	3,24
425,287	3,19
425,792	2,57
426,297	2,69
426,802	2,89
427,306	2,8
427,811	3,12
428,316	2,63
428,82	2,74
429,324	3,17
429,829	2,87
430,333	2,95
430,837	3,17
431,34	2,77
431,844	2,02
432,348	2,76
432,851	2,67
433,355	2,7
433,858	2,61
434,361	2,28
434,864	2,66
435,367	2,8
435,87	2,31
436,373	2,3
436,876	2,95
437,378	2,6
437,88	2,55
438,383	2,81
438,885	2,57
439,387	2,71
439,889	2,77
440,391	3,01
440,892	2,5
441,394	2,86
441,896	2,62
442,397	2,7
442,898	2,79
443,399	2,92
443,9	2,94
444,401	2,79
444,902	2,8
445,403	2,9
445,903	2,84
446,404	2,82
446,904	2,62
447,405	2,67
447,905	2,67
448,405	2,61
448,905	2,78
449,404	2,77
449,904	3,02
450,404	2,83
450,903	3,08
451,403	2,68
451,902	3,07
452,401	2,98
452,9	2,97
453,399	2,82
453,898	2,93
454,396	3,12
454,895	3,12
455,393	3,1
455,892	2,79
456,39	3,06
456,888	2,84
457,386	2,92
457,884	3,04
458,382	3,18
458,879	3,12
459,377	3,14
459,874	3,12
460,372	3,06
460,869	3,24
461,366	2,85
461,863	3,08
462,36	2,96
462,857	3,18
463,353	3,15
463,85	3,16
464,346	2,94
464,843	2,96
465,339	3,26
465,835	3,16
466,331	3,07
466,827	3,25
467,323	2,99
467,818	3,31
468,314	2,91
468,809	3,11
469,305	2,94
469,8	3,18
470,295	3
470,79	3,04
471,285	2,98
471,78	3,05
472,274	3,03
472,769	3,01
473,263	3,26
473,758	2,94
474,252	3,21
474,746	3,07
475,24	3
475,734	3,34
476,228	3,32
476,721	2,93
477,215	3,16
477,708	3,37
478,202	3,32
478,695	3,55
479,188	3,18
479,681	3,22
480,174	3,22
480,667	3,21
481,159	3,36
481,652	3,22
482,144	3,46
482,637	3,29
483,129	3,61
483,621	3,54
484,113	3,1
484,605	3,17
485,097	3,51
485,588	3,38
486,08	3,46
486,571	3,35
487,063	3,41
487,554	3,46
488,045	3,25
488,536	3,41
489,027	3,56
489,518	3,64
490,008	3,52
490,499	3,7
490,989	3,48
491,48	3,75
491,97	3,78
492,46	3,76
492,95	3,84
493,44	3,92
493,93	3,75
494,419	3,97
494,909	4
495,398	4,05
495,888	3,91
496,377	4,16
496,866	4,28
497,355	4,28
497,844	4,45
498,333	4,63
498,821	4,65
499,31	4,73
499,798	4,62
500,287	4,77
500,775	4,94
501,263	5,1
501,751	5,14
502,239	5,16
502,727	5,09
503,215	5,47
503,702	5,69
504,19	5,62
504,677	5,72
505,164	5,96
505,651	6,1
506,139	6,33
506,625	6,37
507,112	6,63
507,599	6,76
508,086	6,84
508,572	7,03
509,058	7,17
509,545	7,31
510,031	7,39
510,517	7,79
511,003	7,89
511,489	8,11
511,974	8,3
512,46	8,44
512,946	8,88
513,431	8,84
513,916	9,14
514,401	9,16
514,887	9,1
515,371	9,58
515,856	9,87
516,341	10,24
516,826	10,24
517,31	10,31
517,795	10,71
518,279	10,77
518,763	11,28
519,247	10,96
519,731	11,52
520,215	11,34
520,699	11,89
521,182	12,04
521,666	12,62
522,149	12,38
522,633	12,81
523,116	13,03
523,599	13,38
524,082	13,41
524,565	13,65
525,048	13,96
525,53	13,86
526,013	14,28
526,495	14,4
526,978	14,38
527,46	14,79
527,942	14,8
528,424	14,84
528,906	15,23
529,388	15,37
529,87	15,18
530,351	15,7
530,833	15,64
531,314	16,09
531,795	16,06
532,277	15,88
532,758	16,44
533,238	16,33
533,719	16,59
534,2	16,41
534,681	16,68
535,161	16,52
535,642	16,34
536,122	17,1
536,602	16,86
537,082	16,99
537,562	16,74
538,042	17,03
538,522	16,94
539,001	16,7
539,481	16,99
539,96	16,71
540,44	17,02
540,919	17,18
541,398	17,16
541,877	17,15
542,356	16,94
542,835	16,99
543,313	17,59
543,792	17,18
544,27	17,49
544,749	17,32
545,227	17,17
545,705	17,05
546,183	17,24
546,661	17,42
547,139	17,39
547,616	17,56
548,094	17,38
548,571	17,17
549,049	17,34
549,526	17,78
550,003	17,3
550,48	17,47
550,957	17,3
551,434	17,91
551,911	17,64
552,387	17,62
552,864	17,27
553,34	17,29
553,817	17,81
554,293	17,52
554,769	17,47
555,245	17,43
555,721	17,48
556,197	17,7
556,672	17,56
557,148	17,55
557,623	17,58
558,099	17,42
558,574	17,64
559,049	17,51
559,524	17,63
559,999	17,35
560,474	17,31
560,948	17,42
561,423	17,25
561,897	17,36
562,372	17,21
562,846	17,22
563,32	17,07
563,794	16,82
564,268	16,92
564,742	17,33
565,216	16,96
565,69	16,93
566,163	16,27
566,636	16,6
567,11	16,49
567,583	16,52
568,056	16,35
568,529	16,05
569,002	16,13
569,475	15,92
569,947	15,92
570,42	15,7
570,892	15,59
571,365	15,61
571,837	15,58
572,309	15,16
572,781	14,82
573,253	14,99
573,725	14,68
574,197	15,01
574,668	14,67
575,14	14,52
575,611	14,38
576,082	14,46
576,554	14,39
577,025	14,07
577,496	13,99
577,967	13,91
578,437	13,83
578,908	13,84
579,379	13,64
579,849	13,7
580,319	13,44
580,79	13,34
581,26	13,51
581,73	13,19
582,2	13,54
582,669	13,11
583,139	13,01
583,609	13,02
584,078	12,99
584,548	12,98
585,017	12,78
585,486	12,9
585,955	12,84
586,424	12,52
586,893	12,58
587,362	12,44
587,83	12,43
588,299	12,34
588,767	12,32
589,236	12,31
589,704	12,3
590,172	12,07
590,64	12,16
591,108	12,01
591,576	12,07
592,043	11,93
592,511	11,95
592,978	11,87
593,446	11,72
593,913	11,83
594,38	11,8
594,847	11,84
595,314	11,64
595,781	11,82
596,248	11,55
596,715	11,67
597,181	11,7
597,647	11,67
598,114	11,44
598,58	11,47
599,046	11,42
599,512	11,58
599,978	11,51
600,444	11,44
600,91	11,27
601,375	11,31
601,841	11,43
602,306	11,53
602,771	11,2
603,236	11,14
603,702	11
604,167	11,11
604,631	11,04
605,096	11,02
605,561	11,18
606,025	11
606,49	10,91
606,954	10,93
607,418	10,9
607,882	10,91
608,347	10,71
608,81	10,73
609,274	10,67
609,738	10,4
610,202	10,61
610,665	10,5
611,128	10,37
611,592	10,32
612,055	10,34
612,518	10,19
612,981	10,11
613,444	10,14
613,907	9,98
614,369	10,04
614,832	9,95
615,294	9,64
615,757	9,67
616,219	9,53
616,681	9,63
617,143	9,55
617,605	9,47
618,067	9,35
618,529	9,36
618,99	9,3
619,452	9,23
619,913	9,26
620,375	9,19
620,836	9,13
621,297	9,1
621,758	8,77
622,219	8,89
622,68	9,05
623,14	8,78
623,601	8,79
624,061	8,75
624,522	8,59
624,982	8,56
625,442	8,79
625,902	8,81
626,362	8,79
626,822	8,75
627,282	8,61
627,742	8,63
628,201	8,65
628,661	8,54
629,12	8,51
629,579	8,61
630,038	8,56
630,497	8,72
630,956	8,53
631,415	8,59
631,874	8,52
632,332	8,33
632,791	8,71
633,249	8,38
633,708	8,37
634,166	8,42
634,624	8,35
635,082	8,28
635,54	8,22
635,998	8,13
636,455	8,24
636,913	8,04
637,37	8,04
637,828	7,89
638,285	7,76
638,742	7,82
639,199	7,47
639,656	7,59
640,113	7,4
640,57	7,37
641,027	7,37
641,483	7,19
641,94	7,13
642,396	7,01
642,852	6,93
643,309	6,83
643,765	6,56
644,221	6,6
644,676	6,55
645,132	6,4
645,588	6,35
646,043	6,31
646,499	6,16
646,954	6,09
647,409	6,06
647,864	5,74
648,319	5,85
648,774	5,75
649,229	5,61
649,684	5,62
650,139	5,56
650,593	5,46
651,047	5,58
651,502	5,39
651,956	5,35
652,41	5,24
652,864	5,29
653,318	5,25
653,772	5,22
654,225	5,22
654,679	5,24
655,133	5,2
655,586	5,19
656,039	5,11
656,492	5,07
656,946	5,03
657,399	4,86
657,851	4,81
658,304	4,86
658,757	4,75
659,209	4,79
659,662	4,6
660,114	4,51
660,567	4,41
661,019	4,5
661,471	4,37
661,923	4,32
662,375	4,31
662,826	4,23
663,278	4,17
663,73	4,12
664,181	4,05
664,632	3,91
665,084	3,91
665,535	3,87
665,986	3,92
666,437	3,85
666,888	3,81
667,338	3,76
667,789	3,7
668,24	3,84
668,69	3,72
669,14	3,65
669,591	3,7
670,041	3,73
670,491	3,76
670,941	3,73
671,391	3,79
671,84	3,9
672,29	3,92
672,74	3,92
673,189	3,96
673,638	3,96
674,088	4,08
674,537	4,12
674,986	4,19
675,435	4,26
675,883	4,34
676,332	4,39
676,781	4,51
677,229	4,58
677,678	4,65
678,126	4,77
678,574	4,73
679,022	4,9
679,47	5,01
679,918	5,12
680,366	5,22
680,814	5,34
681,261	5,4
681,709	5,53
682,156	5,62
682,604	5,69
683,051	5,78
683,498	5,97
683,945	6,08
684,392	6,14
684,839	6,3
685,286	6,46
685,732	6,62
686,179	6,67
686,625	6,81
687,071	7,03
687,518	7,21
687,964	7,29
688,41	7,49
688,856	7,8
689,301	8,01
689,747	8,36
690,193	8,71
690,638	8,87
691,084	9,18
691,529	9,45
691,974	9,8
692,419	9,99
692,864	10,37
693,309	10,85
693,754	11,05
694,199	11,6
694,643	11,85
695,088	12,23
695,532	12,69
695,977	12,95
696,421	13,39
696,865	13,65
697,309	14,2
697,753	14,35
698,197	14,73
698,64	15,11
699,084	15,58
699,527	15,76
699,971	16,12
700,414	16,45
700,857	16,73
701,3	16,9
701,743	17,37
702,186	17,68
702,629	17,8
703,072	18,03
703,515	18,42
703,957	18,65
704,399	18,83
704,842	19,2
705,284	19,42
705,726	19,7
706,168	19,92
706,61	20,13
707,052	20,21
707,494	20,69
707,935	20,72
708,377	20,86
708,818	21,17
709,26	21,18
709,701	21,49
710,142	21,85
710,583	21,92
711,024	21,78
711,465	22,25
711,905	22,58
712,346	22,42
712,787	22,83
713,227	22,88
713,667	23,13
714,108	23,18
714,548	23,23
714,988	23,67
715,428	23,68
715,868	23,89
716,307	23,86
716,747	24,07
717,186	24,33
717,626	24,26
718,065	24,15
718,504	24,48
718,944	24,68
719,383	24,71
719,822	24,91
720,261	25
720,699	25,24
721,138	25,05
721,576	24,92
722,015	25,24
722,453	25,52
722,892	25,57
723,33	25,76
723,768	25,62
724,206	25,8
724,644	25,99
725,081	26,31
725,519	26,11
725,957	26,46
726,394	26,32
726,832	26,54
727,269	26,29
727,706	26,39
728,143	26,43
728,58	26,37
729,017	26,66
729,454	26,95
729,89	26,84
730,327	26,7
730,764	26,65
731,2	26,92
731,636	26,99
732,072	26,97
732,509	26,84
732,945	26,86
733,38	26,89
733,816	26,87
734,252	26,96
734,688	27,21
735,123	27,08
735,559	27,04
735,994	26,94
736,429	27,26
736,864	27,25
737,299	27,05
737,734	27,02
738,169	27,05
738,604	27,02
739,038	27,09
739,473	27,05
739,907	27,36
740,342	27,34
740,776	27,33
741,21	26,89
741,644	27,13
742,078	27,1
742,512	27,22
742,946	27,15
743,379	26,96
743,813	27,31
744,246	27,07
744,68	26,87
745,113	27,25
745,546	26,96
745,979	27,01
746,412	27,17
746,845	26,76
747,278	26,87
747,711	26,94
748,143	27
748,576	27,06
749,008	26,9
749,441	26,72
749,873	26,76
750,305	26,83
750,737	26,93
751,169	26,72
751,601	26,74
752,032	26,85
752,464	26,77
752,896	26,78
753,327	26,8
753,758	26,75
754,19	26,62
754,621	26,77
755,052	26,6
755,483	26,57
755,914	26,46
756,344	26,41
756,775	26,38
757,206	26,52
757,636	26,5
758,066	26,5
758,497	26,32
758,927	26,33
759,357	26,37
759,787	26,11
760,217	26,33
760,647	26,28
761,076	26,59
761,506	26,19
761,935	25,96
762,365	26,09
762,794	25,89
763,223	26,22
763,653	26,11
764,082	26,15
764,51	26,04
764,939	25,97
765,368	26,05
765,797	25,93
766,225	26
766,654	26,24
767,082	25,86
767,51	26,05
767,938	26,1
768,367	26,11
768,795	25,76
769,222	26,16
769,65	25,75
770,078	26,13
770,505	25,71
770,933	25,61
771,36	25,55
771,788	25,8
772,215	25,84
772,642	25,8
773,069	26,04
773,496	25,71
773,923	25,9
774,349	25,65
774,776	25,41
775,203	25,7
775,629	25,66
776,055	25,62
776,482	25,85
776,908	25,74
777,334	25,7
777,76	25,62
778,186	25,89
778,611	25,68
779,037	25,79
779,463	25,67
779,888	25,35
780,314	25,59
780,739	25,42
781,164	25,57
781,589	25,52
782,014	25,48
782,439	25,5
782,864	25,53
783,289	25,6
783,713	25,4
784,138	25,49
784,562	25,43
784,987	25,52
785,411	25,52
785,835	25,41
786,259	25,49
786,683	25,57
787,107	25,48
787,531	25,61
787,954	25,4
788,378	25,5
788,802	25,42
789,225	25,38
789,648	25,47
790,071	25,41
790,495	25,43
790,918	25,09
791,34	25,28
791,763	25,43
792,186	25,29
792,609	25,38
793,031	25,43
793,454	25,4
793,876	25,29
794,298	25,26
794,721	25,39
795,143	25,21
795,565	25,31
795,986	25
796,408	25,23
796,83	25,25
797,252	25,23
797,673	25,18
798,094	25,07
798,516	25,41
798,937	25,29
799,358	25,17
799,779	25,3
800,2	25,39
800,621	24,97
801,042	25,31
801,462	25,22
801,883	25,17
802,303	25,25
802,724	25,06
803,144	25,34
803,564	25,24
803,984	25,21
804,404	25,29
804,824	25,18
805,244	25,27
805,664	25,25
806,084	25,32
806,503	25,15
806,923	25,19
807,342	25,34
807,761	25,06
808,18	25,22
808,599	25,11
809,018	25,25
809,437	25,04
809,856	25,26
810,275	25,15
810,693	25,19
811,112	25,09
811,53	24,8
811,949	25,28
812,367	25,17
812,785	25,25
813,203	25,28
813,621	25,22
814,039	25,03
814,457	25,01
814,874	25,12
815,292	24,97
815,709	25,13
816,127	25,16
816,544	25,16
816,961	25,18
817,378	25,07
817,795	25,03
818,212	24,93
818,629	25,24
819,046	25,08
819,462	25,06
819,879	25
820,295	24,93
820,712	25,19
821,128	24,9
821,544	24,97
821,96	24,93
822,376	24,99
822,792	25,02
823,208	24,98
823,624	24,98
824,039	25,01
824,455	24,91
824,87	25,13
825,286	24,94
825,701	25,02
826,116	24,93
826,531	25,04
826,946	25,16
827,361	24,85
827,776	25
828,19	25,05
828,605	25,19
829,02	25,12
829,434	24,71
829,848	24,87
830,263	24,9
830,677	24,77
831,091	25,15
831,505	25,08
831,919	24,98
832,332	24,79
832,746	24,73
833,16	24,79
833,573	24,95
833,987	25,04
834,4	24,94
834,813	24,95
835,226	24,94
835,639	24,89
836,052	24,99
836,465	25,08
836,878	24,87
837,29	24,97
837,703	24,85
838,116	25,06
838,528	25,01
838,94	24,89
839,352	24,87
839,765	25,02
840,177	24,92
840,589	24,75
841	25,03
841,412	24,98
841,824	25,03
842,235	24,88
842,647	24,8
843,058	25,12
843,47	24,72
843,881	24,93
844,292	24,94
844,703	24,8
845,114	24,92
845,525	24,78
845,935	24,97
846,346	24,92
846,757	24,82
847,167	24,87
847,577	25,22
847,988	24,82
848,398	24,77
848,808	24,92
849,218	24,98
849,628	24,89
850,038	24,84
850,448	24,67
850,857	24,78
851,267	24,73
851,676	24,88
852,086	24,83
852,495	24,87
852,904	25
853,313	24,83
853,722	25,08
854,131	24,73
854,54	24,72
854,949	24,93
855,357	24,84
855,766	24,68
856,174	24,89
856,583	24,8
856,991	24,9
857,399	25
857,807	24,81
858,215	24,8
858,623	24,96
859,031	24,73
859,439	24,62
859,846	24,76
860,254	24,63
860,661	24,51
861,069	24,58
861,476	24,47
861,883	24,7
862,29	24,82
862,697	24,93
863,104	25,01
863,511	24,52
863,918	24,76
864,325	24,74
864,731	24,9
865,138	24,78
865,544	24,92
865,95	24,55
866,357	24,64
866,763	24,6
867,169	24,55
867,575	24,58
867,98	24,53
868,386	24,61
868,792	24,64
869,197	24,58
869,603	24,81
870,008	24,64
870,414	24,62
870,819	24,79
871,224	24,84
871,629	24,68
872,034	24,52
872,439	24,66
872,844	24,65
873,248	24,79
873,653	24,8
874,057	24,96
874,462	24,43
874,866	24,71
875,27	24,85
875,674	24,69
876,078	24,74
876,482	24,69
876,886	24,51
877,29	24,58
877,694	24,55
878,097	24,65
878,501	24,77
878,904	24,58
879,308	24,65
879,711	24,51
880,114	24,79
880,517	24,54
880,92	24,52
881,323	24,69
881,726	24,6
882,128	24,63
882,531	24,59
882,934	24,61
883,336	24,62
883,738	25,02
884,141	24,72
884,543	24,7
884,945	24,73
885,347	24,74
885,749	24,36
886,151	24,71
886,552	24,45
886,954	24,63
887,355	24,68
887,757	24,68
888,158	24,45
888,56	24,6
888,961	24,49
889,362	24,51
889,763	24,48
890,164	24,59
890,565	24,43
890,965	24,78
891,366	24,44
891,767	24,5
892,167	24,3
892,567	24,35
892,968	24,61
893,368	24,47
893,768	24,53
894,168	24,4
894,568	24,53
894,968	24,34
895,368	24,47
895,767	24,62
896,167	24,52
896,566	24,63
896,966	24,63
897,365	24,84
897,764	24,62
898,164	24,48
898,563	24,31
898,962	24,42
899,361	24,31
899,759	24,48
900,158	24,59
900,557	24,55
900,955	24,53
901,354	24,49
901,752	24,27
902,15	24,39
902,548	24,43
902,947	24,48
903,345	24,41
903,742	24,73
904,14	24,51
904,538	24,4
904,936	24,33
905,333	24,32
905,731	24,45
906,128	24,41
906,525	24,63
906,923	24,41
907,32	24,37
907,717	24,21
908,114	24,38
908,511	24,72
908,907	24,46
909,304	24,39
909,701	24,39
910,097	24,57
910,494	24,5
910,89	24,56
911,286	24,38
911,682	24,44
912,078	24,48
912,474	24,44
912,87	24,46
913,266	24,41
913,662	24,48
914,058	24,39
914,453	24,44
914,849	24,53
915,244	24,56
915,639	24,63
916,034	24,33
916,43	24,44
916,825	23,98
917,22	24,58
917,614	24,41
918,009	24,44
918,404	24,4
918,798	24,62
919,193	24,67
919,587	24,37
919,982	24,58
920,376	24,18
920,77	24,8
921,164	24,49
921,558	24,31
921,952	24,24
922,346	24,55
922,74	24,58
923,133	24,14
923,527	24,2
923,92	24,49
924,314	24,29
924,707	23,9
925,1	24,2
925,493	24,34
925,886	24,49
926,279	24,08
926,672	24,65
927,065	24,45
927,457	24,24
927,85	24,43
928,243	24,35
928,635	24,48
929,027	24,39
929,42	24,28
929,812	23,82
930,204	24,23
930,596	24,28
930,988	24,34
931,379	24,3
931,771	24,18
932,163	24,28
932,554	24,39
932,946	24,22
933,337	24,17
933,729	24,11
934,12	24,19
934,511	24,58
934,902	24,4
935,293	24,41
935,684	24,58
936,075	24,3
936,465	24,15
936,856	23,85
937,246	24,4
937,637	24,06
938,027	23,87
938,417	24,35
938,808	24,21
939,198	23,68
939,588	24,13
939,978	24,12
940,368	24,25
940,757	24,22
941,147	23,84
941,537	24,5
941,926	24,09
942,315	24,33
942,705	24,53
943,094	24,52
943,483	24,58
943,872	24,17
944,261	23,83
944,65	24,34
945,039	24,39
945,428	23,63
945,816	24,24
946,205	24,04
946,593	23,93
946,982	24,41
947,37	24,71
947,758	24,5
948,146	24,44
948,534	23,97
948,922	24,49
949,31	24,18
949,698	24,1
950,086	23,94
950,473	24,15
950,861	23,81
951,248	23,81
951,636	23,39
952,023	24,12
952,41	24,05
952,797	23,98
953,184	23,81
953,571	24,04
953,958	24,22
954,345	24,16
954,731	24,1
955,118	24,16
955,505	23,59
955,891	23,75
956,277	23,9
956,664	23,67
957,05	23,84
957,436	23,44
957,822	24,04
958,208	23,54
958,594	23,84
958,979	23,83
959,365	23,67
959,751	24,06
960,136	23,54
960,522	23,86
960,907	24,01
961,292	23,82
961,677	24,01
962,062	23,16
962,447	23,93
962,832	23,59
963,217	23,6
963,602	23,75
963,986	23,53
964,371	23,74
964,756	23,51
965,14	23,7
965,524	23,87
965,908	23,62
966,293	23,34
966,677	23,57
967,061	23,78
967,445	23,84
967,828	23,93
968,212	23,45
968,596	23,97
968,979	23,86
969,363	23,71
969,746	23,79
970,129	23,83
970,513	23,94
970,896	23,89
971,279	23,88
971,662	23,67
972,045	23,95
972,428	23,44
972,81	23,72
973,193	23,79
973,575	23,16
973,958	23,61
974,34	23,7
974,723	23,43
975,105	23,54
975,487	23,87
975,869	23,49
976,251	23,8
976,633	23,59
977,015	23,56
977,396	23,56
977,778	23,72
978,16	23,76
978,541	23,85
978,922	23,78
979,304	23,65
979,685	23,59
980,066	23,41
980,447	23,52
980,828	23,53
981,209	23,7
981,59	23,6
981,97	23,7
982,351	23,62
982,732	23,75
983,112	23,74
983,493	23,42
983,873	23,82
984,253	23,55
984,633	23,8
985,013	23,79
985,393	23,62
985,773	23,47
986,153	23,48
986,533	23,74
986,912	23,69
987,292	23,73
987,671	23,69
988,051	23,64
988,43	23,7
988,809	23,84
989,188	23,89
989,567	23,56
989,946	23,56
990,325	23,46
990,704	23,72
991,083	23,75
991,461	23,63
991,84	24,07
992,218	23,72
992,597	23,8
992,975	23,39
993,353	24,07
993,732	24
994,11	23,71
994,488	23,46
994,866	23,51
995,243	23,77
995,621	23,81
995,999	23,52
996,376	23,74
996,754	23,54
997,131	23,36
997,509	23,91
997,886	23,71
998,263	23,45
998,64	24,13
999,017	23,8
999,394	24,12
999,771	24,28
1000,148	23,6
1000,524	23,96
1000,901	23,07
1001,277	23,66
1001,654	23,47
1002,03	23,87
1002,406	23,33
1002,783	23,74
1003,159	23,96
1003,535	23,6
1003,911	23,37
1004,286	23,96
1004,662	23,43
1005,038	24,21
1005,414	23,51
1005,789	24,13
1006,164	23,98
1006,54	23,99
1006,915	23,7
1007,29	23,62
1007,665	24,27
1008,04	23,81
1008,415	23,64
1008,79	23,36
1009,165	23,64
1009,54	23,82
1009,914	23,99
1010,289	23,76
1010,663	23,88
1011,038	23,87
1011,412	24,2
1011,786	23,65
1012,16	23,34
1012,535	23,88
1012,909	23,6
1013,282	23,84
1013,656	23,63
1014,03	23,52
1014,404	23,62
1014,777	23,55
1015,151	23,99
1015,524	23,99
1015,897	23,77
1016,271	24,32
1016,644	23,28
1017,017	23,87
1017,39	23,73
1017,763	23,42
1018,136	23,54
1018,508	23,53
1018,881	23,98
1019,254	23,53
1019,626	23,93
1019,999	23,97
1020,371	23,74
1020,743	23,68
1021,116	24,06
1021,488	23,48
1021,86	23,43
1022,232	24,16
1022,604	23,42
1022,975	24,01
1023,347	23,54
1023,719	24,12
1024,09	23,5
1024,462	23,79
1024,833	24
1025,204	23,67
1025,576	23,84
1025,947	23,77
1026,318	24,11
1026,689	24,04
1027,06	24,08
1027,431	23,63
1027,801	23,83
1028,172	23,58
1028,543	23,69
1028,913	23,38
1029,284	23,71
1029,654	24,26
1030,024	23,85
1030,394	23,75
1030,764	23,65
1031,135	23,8
1031,504	23,47
1031,874	24,24
1032,244	23,19
1032,614	23,95
1032,983	24,02
1033,353	23,55
1033,722	23,67
1034,092	23,79
1034,461	23,78
1034,83	23,86
1035,2	24,17
1035,569	24,49
1035,938	24,1
1036,307	24,03
1036,675	24,34
1037,044	24,76
1037,413	23,92
1037,781	23,74
1038,15	24,4
1038,518	23,9
1038,887	24,85
1039,255	23,61
1039,623	24,09
1039,991	24,01
1040,359	24,08
1040,727	24,04
1041,095	23,17
1041,463	23,9
1041,831	23,84
1042,198	23,76
1042,566	23,69
1042,933	23,64
1043,301	23,87
1043,668	23,76
1044,035	23,5
1044,402	24,1
1044,77	23,89
1045,137	24,23
1045,503	23,65
1045,87	23,57
1046,237	23,8
1046,604	23,5
1046,97	23,83
1047,337	23,55
1047,703	23,34
1048,07	23,97
1048,436	24,31
1048,802	23,51
1049,168	24,05
1049,534	24,38
1049,9	23,67
1050,266	24,13
1050,632	24,06
1050,998	23,6
1051,364	24,05
1051,729	23,68
1052,095	24,01
1052,46	24,21
1052,825	24,03
1053,191	24,6
1053,556	24,57
1053,921	24,07
1054,286	24,15
1054,651	24,45
1055,016	24,13
1055,381	23,86
1055,745	23,74
1056,11	24,25
1056,475	24,64
1056,839	24,58
1057,203	24,43
1057,568	24,11
1057,932	23,38
1058,296	24,45
1058,66	24,09
1059,024	24,67
1059,388	23,98
1059,752	24,13
1060,116	23,57
1060,48	23,68
1060,843	23,75
1061,207	23,24
1061,57	24,82
1061,934	23,88
1062,297	24,47
1062,66	24,17
1063,023	23,81
1063,386	23,9
1063,749	24,15
1064,112	24,06
1064,475	23,75
1064,838	23,38
1065,201	24,68
1065,563	23,38
1065,926	24,65
1066,288	23,22
1066,651	24,18
1067,013	23,69
1067,375	24,42
1067,737	24,88
1068,099	24,35
1068,461	24,13
1068,823	24,44
1069,185	23,76
1069,547	24,66
1069,909	23,88
1070,27	23,7
1070,632	24,59
1070,993	23,85
1071,355	24,04
1071,716	25,07
1072,077	24,25
1072,438	24,71
1072,799	24,99
1073,16	24,5
1073,521	24,32
1073,882	24,46
1074,243	25,33
1074,603	24,47
1074,964	24,15
1075,325	23,97
1075,685	24,36
1076,045	24,2
1076,406	24,42
1076,766	22,71
1077,126	23,72
1077,486	24,4
1077,846	24,76
1078,206	24,19
1078,566	24,81
1078,925	24,61
1079,285	23,27
1079,645	25,16
1080,004	22,76
1080,364	24,67
1080,723	24,55
1081,082	25,02
1081,442	23,96
1081,801	24,89
1082,16	23,56
1082,519	24,07
1082,878	22,74
1083,237	25,15
1083,595	22,05
1083,954	24,03
1084,313	23,47
1084,671	23,28
1085,03	24,03
1085,388	23,86
1085,746	24,35
1086,104	24,88
1086,463	23,93
1086,821	24,89
1087,179	23,38
1087,537	24,91
1087,894	24,35
1088,252	23,54
1088,61	24,07
1088,967	24,29
1089,325	23,55
1089,682	23,66
1090,04	22,85
1090,397	23,26
1090,754	25,33
1091,111	24,44
1091,469	24,08
1091,826	23,54
1092,182	23,08
1092,539	23,45
1092,896	24,17
1093,253	24,66
1093,609	24,7
1093,966	24,53
1094,322	24,32
1094,679	23,51
1095,035	23,3
1095,391	24,75
1095,748	24,98
1096,104	23,94
1096,46	23,64
1096,816	25,01
1097,171	25,3
1097,527	24,24
1097,883	23,37
1098,239	23,4
1098,594	23,77
1098,95	23,43
1099,305	23,77
1099,66	22,93
1100,016	21,97
1100,371	22,31
1100,726	23,78
1101,081	23,89
1101,436	24,28
1101,791	23,67
1102,146	22,86
1102,5	24,03
1102,855	24,17
1103,21	25,79
1103,564	23,8
1103,918	24,28
1104,273	23,18
1104,627	24,31
1104,981	24,36
1105,335	25,64
1105,69	24,12
1106,043	25,93
1106,397	24,42
1106,751	25,16
1107,105	25,6
1107,459	25,26
1107,812	23,74
1108,166	24,16
1108,519	24,32
1108,873	23,76
1109,226	24,63
1109,579	23,39
1109,932	23,94
1110,285	24,93
1110,638	23,15
1110,991	24,19
1111,344	24,35
1111,697	22,35
1112,05	28,05
1112,402	22,82
1112,755	25,89
1113,107	24,06
1113,46	25,46
1113,812	24,17
1114,164	24,1
1114,517	24,6
1114,869	43,82
1115,221	30,73
1115,573	28,35
1115,924	26,29
