Data from D_1__Relative__3__00062.txt Node

Date: Mon Jan 29 18:14:33 CET 2024
User: diatiterra
Spectrometer: HDX00911
Trigger mode: 0
Integration Time (sec): 6,000000E-3
Scans to average: 2
Nonlinearity correction enabled: false
Boxcar width: 0
Storing dark spectrum: false
XAxis mode: Wavelengths
Number of Pixels in Spectrum: 2068
>>>>>Begin Spectral Data<<<<<
194,468	58,82
195,025	47,79
195,581	53,19
196,138	46,15
196,694	41,95
197,251	36,89
197,807	41,6
198,363	35,27
198,919	39,15
199,474	35
200,03	32,35
200,586	36,39
201,141	41,2
201,696	31,14
202,251	34,32
202,806	43,23
203,361	36,49
203,916	40,07
204,471	35,21
205,025	35,36
205,58	34,05
206,134	37,41
206,688	36,59
207,242	38,78
207,796	38,98
208,35	36,1
208,904	33,22
209,457	38,63
210,011	34,62
210,564	32,29
211,117	41,2
211,67	32,75
212,223	36,99
212,776	38,95
213,329	32,99
213,881	36,79
214,434	38,28
214,986	37,71
215,538	35,16
216,09	35,08
216,642	42,96
217,194	31,13
217,746	35,35
218,297	32,55
218,849	38,01
219,4	40,91
219,951	37,82
220,502	34,49
221,053	37,3
221,604	47,99
222,155	41,98
222,705	35,45
223,256	40,65
223,806	36,05
224,356	45,65
224,906	40,74
225,456	37,59
226,006	34,23
226,556	40,88
227,106	33,92
227,655	37,63
228,204	40,79
228,754	36,21
229,303	42,03
229,852	35,29
230,401	33,69
230,949	40,86
231,498	39,55
232,047	38,38
232,595	34,04
233,143	41,29
233,691	34,8
234,239	30,97
234,787	36,01
235,335	35,71
235,883	39,78
236,43	30,37
236,978	35,64
237,525	42,16
238,072	33,21
238,619	31,85
239,166	38,72
239,713	36,43
240,26	43,45
240,806	34,75
241,353	39,58
241,899	29,77
242,445	38,46
242,991	37,28
243,537	34,98
244,083	34,91
244,629	33,45
245,174	34,33
245,72	39,46
246,265	37,46
246,81	39,78
247,355	19,85
247,9	30,8
248,445	39,31
248,99	40,83
249,534	40,82
250,079	36,94
250,623	38,98
251,168	31,88
251,712	39,01
252,256	34,55
252,8	39,24
253,343	44,27
253,887	37,76
254,43	41,64
254,974	33,92
255,517	39,93
256,06	37,33
256,603	29,43
257,146	32,66
257,689	34,81
258,232	36,02
258,774	39,11
259,317	39,93
259,859	35,06
260,401	40,53
260,943	32,46
261,485	41,84
262,027	28,28
262,569	38,72
263,11	32,49
263,652	46,69
264,193	29,64
264,734	34,13
265,275	33,33
265,816	41,73
266,357	29,5
266,898	35,49
267,438	40
267,979	37,45
268,519	35,38
269,059	37,23
269,6	34,39
270,14	34,32
270,68	36,02
271,219	33,33
271,759	32,09
272,298	35,64
272,838	39,15
273,377	33,7
273,916	36,1
274,455	34,48
274,994	33,81
275,533	33,45
276,072	34,21
276,61	36,52
277,149	25
277,687	33,1
278,225	38,36
278,763	39,86
279,301	44,53
279,839	33,33
280,377	32,48
280,914	30,77
281,452	43,5
281,989	36,52
282,526	38,35
283,064	40,62
283,601	39,77
284,137	32,85
284,674	38,49
285,211	32,73
285,747	34,58
286,284	26,32
286,82	42,91
287,356	40,21
287,892	35,44
288,428	33,56
288,964	39,71
289,5	40,48
290,035	36,33
290,571	32,09
291,106	31,64
291,641	34,48
292,176	35,71
292,711	36,21
293,246	38,27
293,781	32,71
294,315	40,07
294,85	47,08
295,384	42,22
295,918	39,02
296,453	35,69
296,987	36,55
297,52	35,96
298,054	40,07
298,588	38,98
299,121	33,33
299,655	36,84
300,188	30,8
300,721	45,52
301,254	37,37
301,787	37,8
302,32	44,7
302,853	34,49
303,385	36,63
303,918	32,63
304,45	40,54
304,982	41,43
305,514	47,97
306,046	35,09
306,578	36,07
307,11	40,15
307,641	37,82
308,173	37,92
308,704	40,61
309,236	38,58
309,767	32,92
310,298	33,1
310,829	39,92
311,359	36,65
311,89	33,1
312,421	35,51
312,951	40
313,481	46,59
314,012	34,07
314,542	40,07
315,072	34,18
315,601	39,15
316,131	31,39
316,661	38,75
317,19	32,03
317,72	41,39
318,249	40,2
318,778	29,66
319,307	44,59
319,836	39,93
320,365	35,83
320,893	38,65
321,422	34,7
321,95	35,56
322,479	41,18
323,007	39,13
323,535	35,09
324,063	38,06
324,591	33,67
325,118	33,57
325,646	35,77
326,173	41,07
326,701	39,64
327,228	36,42
327,755	35,13
328,282	38,49
328,809	35,19
329,336	37,72
329,862	42,69
330,389	32,42
330,915	30,5
331,441	35,93
331,968	36,08
332,494	36,12
333,02	32,12
333,545	28,88
334,071	37,33
334,597	29,05
335,122	24,41
335,648	39,19
336,173	34,98
336,698	31,16
337,223	37,88
337,748	28,42
338,272	28,05
338,797	32,69
339,322	30,9
339,846	26,56
340,37	29,3
340,894	40,41
341,419	31,88
341,942	36,58
342,466	35,84
342,99	27,38
343,514	28,57
344,037	26,56
344,56	28,21
345,084	29,34
345,607	34,65
346,13	30,46
346,653	21,7
347,175	34,19
347,698	25,6
348,221	29,07
348,743	31,49
349,265	29,76
349,787	27,43
350,309	32,23
350,831	29,55
351,353	26,98
351,875	23,31
352,397	29,75
352,918	28,25
353,439	25,75
353,961	27,61
354,482	28,09
355,003	24,93
355,524	26,79
356,044	22,16
356,565	27,68
357,086	22,39
357,606	27,95
358,126	20,92
358,646	27,61
359,167	26,54
359,687	21,93
360,206	26,51
360,726	20,92
361,246	25,06
361,765	25
362,285	18,72
362,804	26,22
363,323	19,04
363,842	21,43
364,361	25,54
364,88	20,89
365,398	21,85
365,917	23,82
366,435	22,96
366,954	20,64
367,472	23,03
367,99	25,67
368,508	22,07
369,026	24,03
369,544	18
370,061	20,04
370,579	21,2
371,096	18,07
371,613	18,53
372,131	23,77
372,648	21,3
373,165	26,52
373,681	22,07
374,198	21,97
374,715	22,05
375,231	18,76
375,747	18,84
376,264	19,81
376,78	18,98
377,296	21,04
377,812	21,36
378,327	16,44
378,843	22,45
379,359	17,97
379,874	17,21
380,389	22,01
380,905	19,23
381,42	18,41
381,935	20,27
382,449	17,66
382,964	19,12
383,479	16,6
383,993	15,5
384,508	19,2
385,022	18,32
385,536	17,9
386,05	17,88
386,564	16,89
387,078	15,08
387,592	17,08
388,105	18,78
388,619	14,85
389,132	16,92
389,645	17,13
390,158	15,66
390,671	18,04
391,184	16,58
391,697	14,09
392,21	16,35
392,722	15,91
393,235	15,88
393,747	14,54
394,259	13,04
394,771	12,71
395,283	12,74
395,795	15,37
396,307	13,87
396,818	14,3
397,33	11,99
397,841	13,88
398,353	12,26
398,864	11,96
399,375	13,3
399,886	12,24
400,397	12,67
400,907	12,27
401,418	11,12
401,928	11,09
402,439	12,03
402,949	11,41
403,459	10,79
403,969	10,48
404,479	9,97
404,989	9,97
405,498	9,43
406,008	9,89
406,517	8,83
407,027	8,36
407,536	8,61
408,045	8,68
408,554	7,47
409,063	7,51
409,572	7,24
410,08	7,62
410,589	7,46
411,097	7,43
411,606	7,21
412,114	6,96
412,622	6,61
413,13	6,87
413,638	5,84
414,145	5,65
414,653	5,27
415,16	5,84
415,668	5,13
416,175	5,46
416,682	5,59
417,189	4,43
417,696	5,47
418,203	5,28
418,71	5,23
419,216	4,62
419,723	5,17
420,229	5,1
420,735	4,78
421,242	4,93
421,748	5,11
422,254	4,53
422,759	4,32
423,265	4,32
423,771	3,9
424,276	4,56
424,781	4,42
425,287	4,4
425,792	4,52
426,297	4,72
426,802	4,42
427,306	4,59
427,811	4,16
428,316	4,77
428,82	4,34
429,324	4,48
429,829	4,23
430,333	3,87
430,837	3,95
431,34	4,12
431,844	3,78
432,348	3,8
432,851	4,18
433,355	3,75
433,858	3,64
434,361	3,88
434,864	4,07
435,367	4,02
435,87	4,22
436,373	3,94
436,876	3,62
437,378	3,9
437,88	3,82
438,383	3,8
438,885	3,78
439,387	3,67
439,889	3,71
440,391	3,78
440,892	3,82
441,394	3,57
441,896	3,82
442,397	3,65
442,898	3,47
443,399	3,9
443,9	4,05
444,401	3,88
444,902	3,71
445,403	3,8
445,903	3,78
446,404	3,69
446,904	3,76
447,405	3,87
447,905	3,79
448,405	3,98
448,905	3,91
449,404	3,96
449,904	3,93
450,404	3,64
450,903	3,85
451,403	3,79
451,902	4,22
452,401	3,86
452,9	4
453,399	4,08
453,898	4,07
454,396	3,89
454,895	4,03
455,393	3,91
455,892	4,01
456,39	4,15
456,888	3,71
457,386	3,95
457,884	4,05
458,382	4,13
458,879	4,11
459,377	3,78
459,874	4,03
460,372	4
460,869	4,28
461,366	3,86
461,863	4,29
462,36	4,22
462,857	4,25
463,353	3,97
463,85	4,13
464,346	3,92
464,843	4,41
465,339	4,1
465,835	4,11
466,331	3,95
466,827	3,85
467,323	3,89
467,818	3,9
468,314	4,32
468,809	4,06
469,305	4
469,8	4,05
470,295	4,28
470,79	4,15
471,285	4,04
471,78	3,88
472,274	4,09
472,769	4,18
473,263	3,99
473,758	4,18
474,252	4,13
474,746	4,01
475,24	4,06
475,734	4,01
476,228	4,03
476,721	4,02
477,215	4,09
477,708	4,17
478,202	4,18
478,695	3,93
479,188	3,79
479,681	3,91
480,174	4,01
480,667	4,33
481,159	3,97
481,652	3,96
482,144	3,9
482,637	4,15
483,129	4,2
483,621	4
484,113	4,27
484,605	4,36
485,097	4,08
485,588	4,41
486,08	4,39
486,571	4,25
487,063	4,08
487,554	4,32
488,045	4,32
488,536	4,18
489,027	4,26
489,518	4,57
490,008	4,44
490,499	4,33
490,989	4,46
491,48	4,25
491,97	4,58
492,46	4,46
492,95	4,69
493,44	4,66
493,93	4,61
494,419	4,77
494,909	4,8
495,398	5,02
495,888	4,84
496,377	4,88
496,866	4,91
497,355	4,97
497,844	5,27
498,333	5,14
498,821	5,21
499,31	5,18
499,798	5,32
500,287	5,54
500,775	5,55
501,263	5,63
501,751	5,82
502,239	5,84
502,727	5,93
503,215	6,12
503,702	6,18
504,19	6,22
504,677	6,45
505,164	6,57
505,651	6,43
506,139	6,95
506,625	7,19
507,112	7,12
507,599	7,17
508,086	7,2
508,572	7,61
509,058	7,8
509,545	7,99
510,031	8,29
510,517	8,33
511,003	8,32
511,489	8,67
511,974	8,5
512,46	8,94
512,946	9,18
513,431	9,29
513,916	9,83
514,401	9,79
514,887	9,97
515,371	10,42
515,856	10,9
516,341	10,85
516,826	11,21
517,31	11,1
517,795	11,54
518,279	11,99
518,763	11,78
519,247	12,3
519,731	12,56
520,215	12,88
520,699	13,26
521,182	13,34
521,666	13,65
522,149	14,09
522,633	14,21
523,116	14,51
523,599	14,73
524,082	14,67
524,565	15,02
525,048	15,08
525,53	15,24
526,013	16,11
526,495	16,07
526,978	16,07
527,46	16,64
527,942	16,98
528,424	17,11
528,906	17,22
529,388	17,17
529,87	17,43
530,351	17,81
530,833	17,91
531,314	17,96
531,795	18,43
532,277	18,44
532,758	18,16
533,238	18,25
533,719	18,67
534,2	18,77
534,681	19
535,161	19,09
535,642	18,74
536,122	18,82
536,602	18,92
537,082	19
537,562	19,31
538,042	19,2
538,522	19,22
539,001	19,41
539,481	19,19
539,96	19,32
540,44	19,64
540,919	19,94
541,398	19,61
541,877	19,71
542,356	19,76
542,835	19,72
543,313	19,67
543,792	20,14
544,27	19,86
544,749	20,1
545,227	20,05
545,705	20,24
546,183	20,06
546,661	20,19
547,139	20,13
547,616	20,1
548,094	20,09
548,571	20,14
549,049	20,04
549,526	20,32
550,003	20,25
550,48	20,07
550,957	20,41
551,434	19,81
551,911	20,24
552,387	20,17
552,864	20,39
553,34	20,22
553,817	20,35
554,293	20,07
554,769	20,28
555,245	20,09
555,721	20,35
556,197	20,41
556,672	20,1
557,148	20,18
557,623	20,19
558,099	20,21
558,574	20,31
559,049	19,94
559,524	20,07
559,999	20,04
560,474	19,8
560,948	19,9
561,423	20,18
561,897	20,04
562,372	19,72
562,846	19,66
563,32	19,67
563,794	19,38
564,268	19,29
564,742	19,05
565,216	19,11
565,69	18,9
566,163	18,81
566,636	18,82
567,11	18,64
567,583	18,35
568,056	18,46
568,529	18,47
569,002	18,38
569,475	18,1
569,947	17,84
570,42	17,92
570,892	17,25
571,365	17,44
571,837	17,33
572,309	17,49
572,781	17,12
573,253	17
573,725	16,43
574,197	16,62
574,668	16,36
575,14	16,73
575,611	16,29
576,082	16,11
576,554	16
577,025	15,85
577,496	15,64
577,967	15,57
578,437	15,68
578,908	15,62
579,379	15,09
579,849	15,32
580,319	15,06
580,79	14,99
581,26	15,19
581,73	14,81
582,2	14,91
582,669	14,8
583,139	14,57
583,609	14,53
584,078	14,24
584,548	14,34
585,017	14,2
585,486	14,11
585,955	14,07
586,424	14,03
586,893	13,69
587,362	13,78
587,83	13,71
588,299	13,51
588,767	13,68
589,236	13,42
589,704	13,63
590,172	13,55
590,64	13,45
591,108	13,26
591,576	13,15
592,043	13,28
592,511	13,2
592,978	13,04
593,446	13,08
593,913	12,9
594,38	13,01
594,847	12,96
595,314	12,78
595,781	12,97
596,248	12,79
596,715	12,82
597,181	12,78
597,647	12,65
598,114	12,52
598,58	12,72
599,046	12,73
599,512	12,69
599,978	12,65
600,444	12,68
600,91	12,6
601,375	12,51
601,841	12,46
602,306	12,3
602,771	12,42
603,236	12,49
603,702	12,23
604,167	12,25
604,631	12,28
605,096	12,18
605,561	12,06
606,025	12,06
606,49	12,04
606,954	11,86
607,418	11,8
607,882	11,84
608,347	11,82
608,81	11,74
609,274	11,58
609,738	11,7
610,202	11,4
610,665	11,51
611,128	11,32
611,592	11,3
612,055	11,2
612,518	10,98
612,981	10,99
613,444	10,69
613,907	10,72
614,369	10,74
614,832	10,45
615,294	10,6
615,757	10,49
616,219	10,37
616,681	10,49
617,143	10,3
617,605	10,23
618,067	10,1
618,529	10,03
618,99	10,07
619,452	10,03
619,913	9,94
620,375	9,92
620,836	9,85
621,297	9,86
621,758	9,73
622,219	9,62
622,68	9,68
623,14	9,67
623,601	9,51
624,061	9,55
624,522	9,43
624,982	9,52
625,442	9,45
625,902	9,46
626,362	9,4
626,822	9,45
627,282	9,29
627,742	9,37
628,201	9,46
628,661	9,27
629,12	9,33
629,579	9,31
630,038	9,09
630,497	9,31
630,956	9,27
631,415	9,17
631,874	9,27
632,332	9,18
632,791	9,12
633,249	9,09
633,708	9,09
634,166	8,96
634,624	9,07
635,082	8,93
635,54	8,98
635,998	8,81
636,455	8,72
636,913	8,71
637,37	8,56
637,828	8,6
638,285	8,52
638,742	8,45
639,199	8,58
639,656	8,27
640,113	8,07
640,57	8,06
641,027	8,04
641,483	7,93
641,94	7,74
642,396	7,83
642,852	7,63
643,309	7,47
643,765	7,43
644,221	7,28
644,676	7,3
645,132	7,15
645,588	7,12
646,043	7,03
646,499	6,85
646,954	6,88
647,409	6,63
647,864	6,62
648,319	6,53
648,774	6,52
649,229	6,37
649,684	6,37
650,139	6,26
650,593	6,26
651,047	6,22
651,502	6,2
651,956	6,21
652,41	6,08
652,864	6,02
653,318	6,02
653,772	6,07
654,225	5,99
654,679	5,92
655,133	5,87
655,586	5,83
656,039	5,76
656,492	5,62
656,946	5,67
657,399	5,58
657,851	5,59
658,304	5,51
658,757	5,42
659,209	5,37
659,662	5,34
660,114	5,25
660,567	5,06
661,019	5,1
661,471	5,15
661,923	4,91
662,375	4,91
662,826	4,86
663,278	4,73
663,73	4,66
664,181	4,6
664,632	4,56
665,084	4,6
665,535	4,51
665,986	4,47
666,437	4,47
666,888	4,35
667,338	4,48
667,789	4,48
668,24	4,33
668,69	4,37
669,14	4,4
669,591	4,32
670,041	4,36
670,491	4,39
670,941	4,41
671,391	4,39
671,84	4,4
672,29	4,47
672,74	4,51
673,189	4,59
673,638	4,65
674,088	4,67
674,537	4,67
674,986	4,73
675,435	4,78
675,883	4,77
676,332	4,85
676,781	4,99
677,229	5,02
677,678	5,12
678,126	5,17
678,574	5,37
679,022	5,35
679,47	5,51
679,918	5,5
680,366	5,6
680,814	5,73
681,261	5,79
681,709	5,85
682,156	5,89
682,604	6,06
683,051	6
683,498	6,28
683,945	6,3
684,392	6,39
684,839	6,59
685,286	6,62
685,732	6,82
686,179	6,91
686,625	6,99
687,071	7,09
687,518	7,27
687,964	7,57
688,41	7,73
688,856	7,96
689,301	8,11
689,747	8,32
690,193	8,6
690,638	8,89
691,084	9,23
691,529	9,67
691,974	9,9
692,419	10,19
692,864	10,7
693,309	11,03
693,754	11,4
694,199	11,95
694,643	12,19
695,088	12,78
695,532	13,27
695,977	13,64
696,421	14,22
696,865	14,61
697,309	15,2
697,753	15,58
698,197	16,17
698,64	16,57
699,084	16,98
699,527	17,46
699,971	17,93
700,414	18,49
700,857	18,76
701,3	19,37
701,743	19,79
702,186	20,18
702,629	20,73
703,072	20,97
703,515	21,51
703,957	21,97
704,399	22,3
704,842	22,67
705,284	23,12
705,726	23,56
706,168	23,98
706,61	24,11
707,052	24,66
707,494	25,01
707,935	25,27
708,377	25,8
708,818	26,1
709,26	26,36
709,701	26,81
710,142	26,97
710,583	27,32
711,024	27,5
711,465	27,92
711,905	28,36
712,346	28,39
712,787	28,95
713,227	29,19
713,667	29,54
714,108	29,58
714,548	30,26
714,988	30,47
715,428	30,63
715,868	30,85
716,307	31,22
716,747	31,56
717,186	31,63
717,626	31,92
718,065	31,73
718,504	32,28
718,944	32,57
719,383	32,61
719,822	33,11
720,261	33,29
720,699	33,51
721,138	33,81
721,576	34,06
722,015	34,12
722,453	34,28
722,892	34,64
723,33	34,46
723,768	34,7
724,206	34,93
724,644	35,56
725,081	35,13
725,519	35,31
725,957	35,53
726,394	35,57
726,832	36,02
727,269	35,92
727,706	36,37
728,143	36,21
728,58	36,45
729,017	36,5
729,454	36,57
729,89	36,6
730,327	36,89
730,764	36,98
731,2	37,04
731,636	36,87
732,072	36,99
732,509	37,32
732,945	37,29
733,38	37,46
733,816	37,5
734,252	37,66
734,688	37,62
735,123	37,54
735,559	37,98
735,994	37,87
736,429	38,02
736,864	37,7
737,299	37,79
737,734	38
738,169	38,24
738,604	38,26
739,038	38,1
739,473	38,3
739,907	38,5
740,342	38,43
740,776	38,22
741,21	38,28
741,644	38,32
742,078	38,23
742,512	38,52
742,946	37,99
743,379	38,18
743,813	38,19
744,246	38,19
744,68	38,42
745,113	38,37
745,546	38,37
745,979	38,43
746,412	38,36
746,845	38,23
747,278	38,34
747,711	38,31
748,143	38,22
748,576	38,17
749,008	38,29
749,441	38,37
749,873	38,23
750,305	38,3
750,737	38,08
751,169	38,37
751,601	38,28
752,032	38,05
752,464	38,26
752,896	38,06
753,327	38,2
753,758	38,27
754,19	38,05
754,621	38,13
755,052	38,1
755,483	37,71
755,914	38,13
756,344	37,78
756,775	37,98
757,206	38
757,636	37,89
758,066	37,84
758,497	37,91
758,927	37,59
759,357	37,87
759,787	37,96
760,217	37,72
760,647	37,61
761,076	37,72
761,506	37,72
761,935	37,83
762,365	37,64
762,794	37,7
763,223	37,68
763,653	37,89
764,082	37,39
764,51	37,44
764,939	37,45
765,368	37,5
765,797	37,46
766,225	37,38
766,654	37,55
767,082	37,33
767,51	37,41
767,938	37,33
768,367	37,43
768,795	37,2
769,222	37,45
769,65	37,51
770,078	37,39
770,505	37,24
770,933	37,31
771,36	37,04
771,788	37,11
772,215	37,14
772,642	37,47
773,069	37,23
773,496	37,35
773,923	37,22
774,349	36,98
774,776	37,04
775,203	37,04
775,629	37,07
776,055	37,29
776,482	37,16
776,908	37,03
777,334	37,11
777,76	37,25
778,186	36,97
778,611	36,99
779,037	36,93
779,463	37
779,888	37,06
780,314	37,11
780,739	36,92
781,164	36,71
781,589	37,1
782,014	36,93
782,439	37,09
782,864	37,07
783,289	36,76
783,713	37,09
784,138	37,02
784,562	36,85
784,987	36,9
785,411	36,84
785,835	36,77
786,259	36,61
786,683	36,92
787,107	37,16
787,531	36,61
787,954	36,85
788,378	36,79
788,802	36,86
789,225	36,82
789,648	36,89
790,071	36,92
790,495	36,87
790,918	36,59
791,34	36,79
791,763	36,81
792,186	36,59
792,609	36,79
793,031	36,72
793,454	36,88
793,876	36,77
794,298	36,72
794,721	36,63
795,143	36,66
795,565	36,47
795,986	36,56
796,408	36,65
796,83	36,93
797,252	36,62
797,673	36,82
798,094	36,59
798,516	36,59
798,937	36,44
799,358	36,5
799,779	36,63
800,2	36,51
800,621	36,37
801,042	36,72
801,462	36,82
801,883	36,57
802,303	36,33
802,724	36,52
803,144	36,58
803,564	36,49
803,984	36,58
804,404	36,47
804,824	36,81
805,244	36,73
805,664	36,65
806,084	36,61
806,503	36,66
806,923	36,69
807,342	36,6
807,761	36,39
808,18	36,47
808,599	36,51
809,018	36,65
809,437	36,27
809,856	36,73
810,275	36,4
810,693	36,79
811,112	36,59
811,53	36,84
811,949	36,54
812,367	36,47
812,785	36,77
813,203	36,43
813,621	36,63
814,039	36,63
814,457	36,69
814,874	36,43
815,292	36,66
815,709	36,6
816,127	36,34
816,544	36,6
816,961	36,43
817,378	36,39
817,795	36,52
818,212	36,59
818,629	36,58
819,046	36,67
819,462	36,52
819,879	36,58
820,295	36,26
820,712	36,57
821,128	36,55
821,544	36,3
821,96	36,42
822,376	36,71
822,792	36,55
823,208	36,65
823,624	36,33
824,039	36,41
824,455	36,91
824,87	36,71
825,286	36,47
825,701	36,56
826,116	36,61
826,531	36,68
826,946	36,33
827,361	36,42
827,776	36,69
828,19	36,53
828,605	36,17
829,02	36,51
829,434	36,33
829,848	36,34
830,263	36,69
830,677	36,16
831,091	36,75
831,505	36,34
831,919	36,63
832,332	36,46
832,746	36,66
833,16	36,23
833,573	36,46
833,987	36,4
834,4	36,52
834,813	36,29
835,226	36,52
835,639	36,18
836,052	36,35
836,465	36,49
836,878	36,59
837,29	36,57
837,703	36,22
838,116	36,33
838,528	36,31
838,94	36,26
839,352	36,25
839,765	36,33
840,177	36,19
840,589	36,31
841	36,14
841,412	36,27
841,824	36,24
842,235	36,42
842,647	36,48
843,058	36,51
843,47	36,37
843,881	36,14
844,292	36,04
844,703	36,48
845,114	36,31
845,525	36,39
845,935	36,56
846,346	36,18
846,757	36,21
847,167	36,48
847,577	36,39
847,988	36,3
848,398	36,4
848,808	36,49
849,218	36,59
849,628	36,11
850,038	36,44
850,448	36,35
850,857	36,26
851,267	36,28
851,676	36,6
852,086	36,27
852,495	36,09
852,904	36,19
853,313	36,27
853,722	36,13
854,131	36,08
854,54	36,45
854,949	36,34
855,357	36,23
855,766	36,3
856,174	36,15
856,583	36,06
856,991	36,22
857,399	36,32
857,807	36,39
858,215	36,52
858,623	36,1
859,031	36,34
859,439	36,41
859,846	36,11
860,254	36,08
860,661	36,46
861,069	36,35
861,476	36,21
861,883	36,07
862,29	36,14
862,697	36,33
863,104	36,35
863,511	36,24
863,918	36,39
864,325	36,12
864,731	36,18
865,138	36,5
865,544	36,27
865,95	36,37
866,357	36,26
866,763	36,27
867,169	36,14
867,575	36,31
867,98	36,08
868,386	36,19
868,792	36,44
869,197	36,1
869,603	36,34
870,008	36,36
870,414	36,23
870,819	36,44
871,224	36,15
871,629	36,24
872,034	36,11
872,439	36,48
872,844	36,23
873,248	35,91
873,653	36,19
874,057	36,53
874,462	36,32
874,866	36,34
875,27	36,44
875,674	36,48
876,078	36,37
876,482	36,25
876,886	36,23
877,29	36,19
877,694	36,37
878,097	36,5
878,501	36,43
878,904	36,36
879,308	36,13
879,711	36,37
880,114	36,32
880,517	36,16
880,92	36,09
881,323	36,16
881,726	36,43
882,128	36,72
882,531	36,27
882,934	36,35
883,336	36,21
883,738	36,19
884,141	36,38
884,543	36,03
884,945	36,48
885,347	36,21
885,749	36,31
886,151	36,05
886,552	36,41
886,954	36,35
887,355	36,53
887,757	36,32
888,158	36,05
888,56	36,45
888,961	36,38
889,362	36,48
889,763	36,33
890,164	36,48
890,565	36,12
890,965	36,32
891,366	36,27
891,767	36,27
892,167	36,19
892,567	36,32
892,968	36,35
893,368	36,47
893,768	36,24
894,168	36,1
894,568	36,41
894,968	35,97
895,368	36,25
895,767	36,29
896,167	36,37
896,566	36,56
896,966	36,39
897,365	35,97
897,764	36,07
898,164	36,42
898,563	36,35
898,962	36,47
899,361	36,13
899,759	36,59
900,158	36,45
900,557	36,53
900,955	36,34
901,354	36,52
901,752	36,36
902,15	36,49
902,548	36,48
902,947	36,36
903,345	36,21
903,742	36,18
904,14	36,55
904,538	36,15
904,936	36,2
905,333	36,16
905,731	36,4
906,128	36,02
906,525	36,39
906,923	36,42
907,32	36,26
907,717	36,13
908,114	36,01
908,511	36,1
908,907	36,32
909,304	36,5
909,701	35,9
910,097	36,43
910,494	36,15
910,89	36,14
911,286	36,58
911,682	36,28
912,078	36,19
912,474	35,91
912,87	36,19
913,266	36,64
913,662	36,3
914,058	36,17
914,453	36,42
914,849	36,25
915,244	36,07
915,639	36,26
916,034	35,87
916,43	35,98
916,825	35,67
917,22	35,99
917,614	36,24
918,009	36,48
918,404	36,02
918,798	36,21
919,193	36,21
919,587	36,27
919,982	35,79
920,376	36,17
920,77	36,22
921,164	36,52
921,558	36,39
921,952	36,24
922,346	36,35
922,74	36,81
923,133	36,58
923,527	35,81
923,92	36,33
924,314	36,21
924,707	36,31
925,1	36,09
925,493	36,29
925,886	36,47
926,279	36,16
926,672	36,28
927,065	36,19
927,457	35,88
927,85	36,17
928,243	35,82
928,635	36,06
929,027	35,94
929,42	36,42
929,812	35,9
930,204	36,37
930,596	36,43
930,988	36,09
931,379	36,09
931,771	35,98
932,163	36,15
932,554	35,91
932,946	35,96
933,337	36,07
933,729	36,76
934,12	35,78
934,511	36,01
934,902	35,69
935,293	36,31
935,684	36,25
936,075	35,96
936,465	35,86
936,856	36,08
937,246	35,74
937,637	35,9
938,027	35,61
938,417	35,39
938,808	36,02
939,198	36,18
939,588	36,04
939,978	35,93
940,368	35,55
940,757	35,59
941,147	35,74
941,537	35,78
941,926	35,22
942,315	36,04
942,705	35,74
943,094	35,73
943,483	35,66
943,872	36,01
944,261	35,2
944,65	35,72
945,039	36,15
945,428	35,99
945,816	35,91
946,205	35,89
946,593	35,66
946,982	35,81
947,37	35,76
947,758	35,77
948,146	35,98
948,534	35,65
948,922	36,02
949,31	35,87
949,698	35,43
950,086	35,28
950,473	35,56
950,861	35,59
951,248	35,77
951,636	35,15
952,023	35,17
952,41	35,88
952,797	35,24
953,184	35,44
953,571	34,31
953,958	35,63
954,345	34,87
954,731	35,1
955,118	35,37
955,505	34,76
955,891	35,11
956,277	35,38
956,664	34,88
957,05	35,17
957,436	34,96
957,822	34,67
958,208	35,56
958,594	34,65
958,979	34,61
959,365	35,33
959,751	34,63
960,136	34,84
960,522	34,96
960,907	35,14
961,292	34,66
961,677	34,42
962,062	34,65
962,447	34,6
962,832	34,95
963,217	34,79
963,602	35,04
963,986	35,17
964,371	34,43
964,756	34,76
965,14	34,57
965,524	35,26
965,908	34,5
966,293	34,87
966,677	35,27
967,061	34,73
967,445	34,71
967,828	34,68
968,212	34,96
968,596	34,89
968,979	34,43
969,363	35,17
969,746	34,75
970,129	34,75
970,513	34,64
970,896	34,91
971,279	35,02
971,662	34,56
972,045	35,07
972,428	34,84
972,81	34,77
973,193	34,9
973,575	35,3
973,958	35,05
974,34	34,87
974,723	35,03
975,105	34,72
975,487	34,49
975,869	34,46
976,251	34,57
976,633	35,04
977,015	34,94
977,396	34,86
977,778	35,22
978,16	34,81
978,541	35,02
978,922	34,84
979,304	35,02
979,685	34,91
980,066	35,43
980,447	35
980,828	34,97
981,209	35,02
981,59	34,9
981,97	35,16
982,351	34,69
982,732	34,61
983,112	35,54
983,493	35,35
983,873	35,13
984,253	35,46
984,633	35,22
985,013	35,04
985,393	35,79
985,773	34,66
986,153	35,26
986,533	35,23
986,912	34,9
987,292	35,29
987,671	34,93
988,051	34,7
988,43	34,68
988,809	34,81
989,188	35,12
989,567	35,58
989,946	35,12
990,325	34,76
990,704	35,18
991,083	35,42
991,461	35,41
991,84	35,14
992,218	35,42
992,597	35,08
992,975	35,11
993,353	35,16
993,732	34,74
994,11	35,31
994,488	35,12
994,866	35,55
995,243	35,13
995,621	35,16
995,999	35,18
996,376	35,7
996,754	35,46
997,131	35,6
997,509	35,05
997,886	35,08
998,263	34,97
998,64	35,05
999,017	35,14
999,394	35,18
999,771	35,23
1000,148	35,6
1000,524	35,7
1000,901	35,26
1001,277	34,65
1001,654	35,29
1002,03	35,73
1002,406	35,41
1002,783	35,1
1003,159	35,74
1003,535	35,31
1003,911	35,67
1004,286	35,17
1004,662	35,58
1005,038	34,83
1005,414	35,23
1005,789	35,68
1006,164	35,69
1006,54	35,17
1006,915	35,39
1007,29	35,25
1007,665	35,77
1008,04	35,6
1008,415	35,06
1008,79	36,1
1009,165	35,86
1009,54	35,31
1009,914	35,44
1010,289	35,45
1010,663	35,56
1011,038	35,1
1011,412	35,71
1011,786	34,95
1012,16	35,54
1012,535	35,19
1012,909	35,86
1013,282	35,85
1013,656	35,78
1014,03	35,24
1014,404	35,38
1014,777	35,69
1015,151	35,54
1015,524	35,16
1015,897	36,21
1016,271	36,43
1016,644	35,77
1017,017	35,31
1017,39	35,57
1017,763	35,4
1018,136	35,95
1018,508	36,12
1018,881	35,52
1019,254	36,05
1019,626	35,56
1019,999	35,71
1020,371	35,69
1020,743	35,34
1021,116	36,04
1021,488	35,66
1021,86	36,39
1022,232	36,2
1022,604	35,9
1022,975	35,9
1023,347	36,31
1023,719	35,29
1024,09	35,24
1024,462	35,91
1024,833	35,52
1025,204	36
1025,576	35,85
1025,947	35,77
1026,318	35,68
1026,689	35,58
1027,06	36,01
1027,431	35,72
1027,801	36,3
1028,172	35,87
1028,543	36,61
1028,913	35,45
1029,284	35,42
1029,654	34,85
1030,024	36,2
1030,394	36,43
1030,764	36,88
1031,135	36,03
1031,504	35,83
1031,874	35,7
1032,244	34,69
1032,614	36,06
1032,983	36
1033,353	35,55
1033,722	35,91
1034,092	35,62
1034,461	35,72
1034,83	35,77
1035,2	36,47
1035,569	36,2
1035,938	36,2
1036,307	36,14
1036,675	35,6
1037,044	36,33
1037,413	35,42
1037,781	35,94
1038,15	35,64
1038,518	36,03
1038,887	36,77
1039,255	35,82
1039,623	36
1039,991	36,26
1040,359	35,41
1040,727	36,05
1041,095	36,33
1041,463	36,39
1041,831	35,98
1042,198	36,05
1042,566	35,58
1042,933	35,97
1043,301	36,42
1043,668	35,96
1044,035	36,24
1044,402	36,4
1044,77	36,07
1045,137	36,66
1045,503	36,16
1045,87	37,08
1046,237	36,22
1046,604	35,25
1046,97	36,01
1047,337	37,15
1047,703	35,89
1048,07	36
1048,436	36,14
1048,802	36,12
1049,168	36,11
1049,534	35,98
1049,9	36,04
1050,266	36,95
1050,632	35,99
1050,998	36,8
1051,364	36,18
1051,729	36,11
1052,095	35,17
1052,46	35,88
1052,825	36,93
1053,191	36,22
1053,556	36,38
1053,921	36,36
1054,286	36,07
1054,651	36,17
1055,016	35,96
1055,381	36,11
1055,745	36,24
1056,11	36,86
1056,475	36,3
1056,839	36,88
1057,203	36,87
1057,568	35,99
1057,932	35,85
1058,296	36,86
1058,66	35,48
1059,024	37,04
1059,388	36,35
1059,752	36,09
1060,116	36,48
1060,48	36,49
1060,843	36,49
1061,207	36,58
1061,57	36,17
1061,934	36,86
1062,297	36,97
1062,66	36,43
1063,023	36,5
1063,386	36,13
1063,749	35,56
1064,112	35,74
1064,475	36,73
1064,838	36,45
1065,201	37,55
1065,563	36,14
1065,926	36,25
1066,288	36,57
1066,651	35,87
1067,013	37,04
1067,375	35,86
1067,737	36,46
1068,099	36,81
1068,461	36,4
1068,823	36,65
1069,185	36,15
1069,547	36,74
1069,909	36,13
1070,27	36,79
1070,632	35,62
1070,993	35,61
1071,355	36,33
1071,716	36,53
1072,077	36,28
1072,438	37,22
1072,799	37,02
1073,16	36,98
1073,521	38,41
1073,882	37,01
1074,243	36,06
1074,603	36,47
1074,964	34,63
1075,325	36,75
1075,685	36,91
1076,045	35,42
1076,406	36,07
1076,766	37,05
1077,126	35,99
1077,486	36,96
1077,846	35,38
1078,206	35,97
1078,566	36,81
1078,925	37,47
1079,285	36,28
1079,645	36,24
1080,004	35,98
1080,364	36,62
1080,723	35,6
1081,082	36,45
1081,442	35,76
1081,801	37,57
1082,16	37,53
1082,519	36,45
1082,878	36,87
1083,237	36,51
1083,595	37,68
1083,954	37,3
1084,313	36,46
1084,671	38,04
1085,03	36,04
1085,388	37,21
1085,746	37,69
1086,104	36,31
1086,463	35,88
1086,821	35,56
1087,179	37,53
1087,537	37,35
1087,894	35,44
1088,252	35,14
1088,61	36,59
1088,967	36,91
1089,325	37,43
1089,682	35,66
1090,04	37,04
1090,397	35,35
1090,754	36,54
1091,111	36,16
1091,469	34,4
1091,826	36,11
1092,182	35,86
1092,539	35,63
1092,896	36,01
1093,253	35,58
1093,609	36,34
1093,966	36,03
1094,322	35,61
1094,679	35,09
1095,035	36
1095,391	35,78
1095,748	37,35
1096,104	37,5
1096,46	35,6
1096,816	36,31
1097,171	36,07
1097,527	35,43
1097,883	37,22
1098,239	36,27
1098,594	36,64
1098,95	37,01
1099,305	36,65
1099,66	35,48
1100,016	36,46
1100,371	36,14
1100,726	37,58
1101,081	35,93
1101,436	37,59
1101,791	37,03
1102,146	36,31
1102,5	38,01
1102,855	37,41
1103,21	38,08
1103,564	37,69
1103,918	35,87
1104,273	37,24
1104,627	36,2
1104,981	35,65
1105,335	36,47
1105,69	37,93
1106,043	37,09
1106,397	37,14
1106,751	36,92
1107,105	37,58
1107,459	35,77
1107,812	35,87
1108,166	37,11
1108,519	37,25
1108,873	39,31
1109,226	37,7
1109,579	38,61
1109,932	36,27
1110,285	35,42
1110,638	37,01
1110,991	39,05
1111,344	36,88
1111,697	36,36
1112,05	37,21
1112,402	36,36
1112,755	36,77
1113,107	38,45
1113,46	35,11
1113,812	39,88
1114,164	36,97
1114,517	37,79
1114,869	52,99
1115,221	50,81
1115,573	35,85
1115,924	36,5
