Data from D_3__Relative__0__00070.txt Node

Date: Mon Jan 29 18:15:31 CET 2024
User: diatiterra
Spectrometer: HDX00911
Trigger mode: 0
Integration Time (sec): 6,000000E-3
Scans to average: 2
Nonlinearity correction enabled: false
Boxcar width: 0
Storing dark spectrum: false
XAxis mode: Wavelengths
Number of Pixels in Spectrum: 2068
>>>>>Begin Spectral Data<<<<<
194,468	61,76
195,025	50,44
195,581	62,77
196,138	63,08
196,694	52,87
197,251	52
197,807	55,2
198,363	50,55
198,919	49,47
199,474	47,5
200,03	45,22
200,586	45,58
201,141	44,94
201,696	49,48
202,251	52,4
202,806	51,88
203,361	51,58
203,916	56,85
204,471	42,61
205,025	45,71
205,58	40,14
206,134	50,37
206,688	39,86
207,242	45,92
207,796	49,15
208,35	43,68
208,904	37,97
209,457	46,57
210,011	40,56
210,564	42,36
211,117	47,18
211,67	47,18
212,223	42,47
212,776	49,81
213,329	48,45
213,881	40
214,434	48,97
214,986	46,46
215,538	54,58
216,09	39,02
216,642	49,26
217,194	41,06
217,746	47,81
218,297	45,3
218,849	45,17
219,4	50
219,951	52,73
220,502	41,81
221,053	41,07
221,604	50,34
222,155	53,91
222,705	44,15
223,256	47,12
223,806	46,6
224,356	53,26
224,906	47,04
225,456	41,03
226,006	51,68
226,556	47,08
227,106	46,5
227,655	48,78
228,204	48,68
228,754	49,66
229,303	47,46
229,852	56,54
230,401	48,39
230,949	53,7
231,498	48,13
232,047	49,83
232,595	51,42
233,143	51,52
233,691	56,8
234,239	41,79
234,787	40,56
235,335	41,16
235,883	49,82
236,43	49,63
236,978	50,91
237,525	51,87
238,072	47,97
238,619	43,49
239,166	46,13
239,713	59,48
240,26	56,55
240,806	41,13
241,353	51,24
241,899	48,54
242,445	48,25
242,991	49,48
243,537	48,18
244,083	46,18
244,629	45,27
245,174	57,84
245,72	41,47
246,265	45,58
246,81	43,8
247,355	47,06
247,9	43,25
248,445	51,38
248,99	42,56
249,534	41,46
250,079	50,37
250,623	47,46
251,168	43,29
251,712	46,45
252,256	48,17
252,8	51,39
253,343	49,68
253,887	45,58
254,43	53,16
254,974	47,9
255,517	51,34
256,06	40,07
256,603	50,19
257,146	44,78
257,689	41,77
258,232	54,02
258,774	46,86
259,317	47,25
259,859	45,39
260,401	58,71
260,943	51,87
261,485	52,84
262,027	38,62
262,569	51,13
263,11	53,43
263,652	45,96
264,193	50,71
264,734	52,78
265,275	50,2
265,816	56,83
266,357	47,48
266,898	46,42
267,438	49,41
267,979	58,91
268,519	45,13
269,059	46,81
269,6	47,37
270,14	50,17
270,68	51,34
271,219	47,37
271,759	41,42
272,298	46,55
272,838	51,16
273,377	48,52
273,916	43,32
274,455	45,21
274,994	48,92
275,533	48,12
276,072	43,61
276,61	48,81
277,149	46,01
277,687	49,82
278,225	40,07
278,763	51,81
279,301	50,19
279,839	46,74
280,377	48,18
280,914	38,46
281,452	56,91
281,989	47,44
282,526	49,82
283,064	50,35
283,601	47,35
284,137	50,36
284,674	43,4
285,211	39,57
285,747	52,54
286,284	40
286,82	45,74
287,356	50,17
287,892	46,32
288,428	46,1
288,964	45,49
289,5	51,7
290,035	43,88
290,571	50,75
291,106	41,09
291,641	48,28
292,176	48,5
292,711	43,1
293,246	45,85
293,781	55,39
294,315	45,59
294,85	54,74
295,384	51,11
295,918	47,04
296,453	45,58
296,987	47,93
297,52	45,55
298,054	40,44
298,588	50,79
299,121	49,82
299,655	40,7
300,188	44,11
300,721	49,66
301,254	47,69
301,787	49,59
302,32	51,52
302,853	42,16
303,385	47,99
303,918	48,07
304,45	44,02
304,982	49,8
305,514	46,49
306,046	45,61
306,578	37,86
307,11	44,24
307,641	49,09
308,173	42,38
308,704	54,02
309,236	41,57
309,767	43,75
310,298	52,26
310,829	46,01
311,359	47,33
311,89	43,06
312,421	42,75
312,951	48
313,481	46,59
314,012	51,65
314,542	48,29
315,072	48,73
315,601	48,4
316,131	41,61
316,661	48,75
317,19	46,26
317,72	51,65
318,249	42,91
318,778	44,87
319,307	48,65
319,836	46,64
320,365	46,25
320,893	43,62
321,422	46,27
321,95	47,78
322,479	52,94
323,007	47,1
323,535	48,68
324,063	50
324,591	41
325,118	44,41
325,646	58,85
326,173	49,64
326,701	46,91
327,228	47,92
327,755	43,37
328,282	46,42
328,809	51,11
329,336	52,25
329,862	44,23
330,389	48,46
330,915	42,2
331,441	43,05
331,968	47,42
332,494	43,81
333,02	44,16
333,545	47,29
334,071	43
334,597	43,92
335,122	45,82
335,648	47,25
336,173	44,88
336,698	48,63
337,223	46,42
337,748	43,86
338,272	46,53
338,797	44,98
339,322	40,53
339,846	44,53
340,37	40,29
340,894	48,29
341,419	48,32
341,942	51,34
342,466	44,37
342,99	44,31
343,514	43,18
344,037	41,64
344,56	48,59
345,084	38,17
345,607	44,68
346,13	41,54
346,653	48,43
347,175	46,13
347,698	35,71
348,221	43,6
348,743	41,98
349,265	45,24
349,787	41,43
350,309	40,77
350,831	43,58
351,353	43,12
351,875	39,33
352,397	42,15
352,918	37,29
353,439	46,88
353,961	41,41
354,482	50,28
355,003	39,41
355,524	39,29
356,044	42,74
356,565	41,15
357,086	37,15
357,606	38,8
358,126	39,42
358,646	38,81
359,167	42,01
359,687	37,5
360,206	38,55
360,726	33,47
361,246	43,61
361,765	30,7
362,285	33,41
362,804	39,33
363,323	30,05
363,842	39,05
364,361	38,31
364,88	39,66
365,398	34,66
365,917	42,92
366,435	37,98
366,954	37,27
367,472	33,69
367,99	38,81
368,508	37,5
369,026	33,33
369,544	34,18
370,061	36,2
370,579	33,02
371,096	37,23
371,613	34,13
372,131	36,62
372,648	42,24
373,165	38,13
373,681	35,73
374,198	36,72
374,715	36,81
375,231	31,48
375,747	35,87
376,264	33,55
376,78	39,39
377,296	36,55
377,812	35,61
378,327	32,15
378,843	37,52
379,359	30,14
379,874	31,83
380,389	36,86
380,905	34,75
381,42	35,12
381,935	35,47
382,449	36,59
382,964	34,35
383,479	34,23
383,993	33,53
384,508	32,79
385,022	34,77
385,536	30,43
386,05	31,02
386,564	29,8
387,078	30,16
387,592	28,85
388,105	29,2
388,619	31,47
389,132	27,57
389,645	31,01
390,158	29,22
390,671	29,01
391,184	27,26
391,697	26,07
392,21	28,24
392,722	28,65
393,235	28,23
393,747	29,26
394,259	26,17
394,771	26,9
395,283	25,64
395,795	28,8
396,307	24,79
396,818	24,66
397,33	24,65
397,841	26,18
398,353	22,95
398,864	24,71
399,375	24
399,886	22,95
400,397	22,31
400,907	23,03
401,418	21,6
401,928	20,52
402,439	22,03
402,949	20,38
403,459	19,91
403,969	21,56
404,479	19,83
404,989	18,73
405,498	18,57
406,008	17,31
406,517	17,81
407,027	16,9
407,536	15,65
408,045	16
408,554	15,51
409,063	15,4
409,572	14,82
410,08	14,59
410,589	14,49
411,097	13,89
411,606	13,07
412,114	13,15
412,622	12,41
413,13	12,59
413,638	11,76
414,145	11,63
414,653	11,39
415,16	11,55
415,668	10,96
416,175	10,73
416,682	10,31
417,189	10,39
417,696	9,77
418,203	10,15
418,71	9,65
419,216	9,59
419,723	9,76
420,229	9,24
420,735	9
421,242	9,19
421,748	9,38
422,254	9,14
422,759	9,18
423,265	8,77
423,771	8,5
424,276	8,29
424,781	9,33
425,287	8,68
425,792	8,88
426,297	9
426,802	8,68
427,306	8,59
427,811	8,79
428,316	9,05
428,82	8,3
429,324	8,22
429,829	8,55
430,333	8,42
430,837	7,68
431,34	7,69
431,844	8,11
432,348	8,27
432,851	8,11
433,355	7,65
433,858	7,82
434,361	7,58
434,864	7,85
435,367	7,96
435,87	8,15
436,373	7,66
436,876	7,38
437,378	7,79
437,88	7,53
438,383	7,62
438,885	7,62
439,387	7,48
439,889	7,65
440,391	7,65
440,892	7,79
441,394	7,63
441,896	7,83
442,397	7,46
442,898	7,65
443,399	8,07
443,9	7,85
444,401	7,43
444,902	8
445,403	7,78
445,903	7,49
446,404	7,85
446,904	7,6
447,405	8,04
447,905	7,62
448,405	7,62
448,905	8,47
449,404	7,86
449,904	8,26
450,404	8,28
450,903	8,19
451,403	8,29
451,902	8,15
452,401	8,08
452,9	8,13
453,399	8,52
453,898	7,88
454,396	8,2
454,895	8,25
455,393	7,91
455,892	8,25
456,39	8,35
456,888	8,15
457,386	8,52
457,884	8,24
458,382	8,58
458,879	8,34
459,377	8,36
459,874	8,59
460,372	7,83
460,869	8,47
461,366	8,37
461,863	8,61
462,36	8,51
462,857	8,51
463,353	8,64
463,85	8,41
464,346	8,41
464,843	8,31
465,339	8,1
465,835	8,46
466,331	8,21
466,827	8,44
467,323	8,15
467,818	8,51
468,314	8,67
468,809	8,16
469,305	8,27
469,8	8,19
470,295	8,3
470,79	8,58
471,285	8,43
471,78	8,43
472,274	8,31
472,769	8,29
473,263	8,41
473,758	8,55
474,252	8,44
474,746	8,59
475,24	8,44
475,734	8,48
476,228	8,51
476,721	8,61
477,215	8,69
477,708	8,93
478,202	8,97
478,695	8,29
479,188	8,22
479,681	8,43
480,174	8,63
480,667	8,56
481,159	8,63
481,652	8,42
482,144	8,69
482,637	8,49
483,129	8,95
483,621	8,62
484,113	8,99
484,605	8,61
485,097	8,81
485,588	8,62
486,08	9,15
486,571	9,01
487,063	8,6
487,554	8,89
488,045	9,15
488,536	8,75
489,027	9,03
489,518	9,35
490,008	9,23
490,499	9
490,989	9,2
491,48	9,36
491,97	9,22
492,46	9,34
492,95	9,7
493,44	9,42
493,93	9,64
494,419	9,5
494,909	9,99
495,398	9,74
495,888	10,14
496,377	9,92
496,866	10,19
497,355	10,03
497,844	10,3
498,333	10,15
498,821	10,18
499,31	10,52
499,798	10,53
500,287	10,74
500,775	10,99
501,263	11,22
501,751	11,21
502,239	11,51
502,727	11,73
503,215	11,87
503,702	11,91
504,19	12,18
504,677	12,31
505,164	12,34
505,651	12,69
506,139	12,7
506,625	12,83
507,112	13,09
507,599	13,39
508,086	13,37
508,572	13,65
509,058	14,21
509,545	14
510,031	14,36
510,517	14,92
511,003	15,02
511,489	15,3
511,974	15,95
512,46	15,91
512,946	16,07
513,431	16,3
513,916	16,31
514,401	16,95
514,887	17,16
515,371	17,57
515,856	17,84
516,341	18,4
516,826	18,91
517,31	19,4
517,795	19,49
518,279	19,72
518,763	20,15
519,247	20,28
519,731	20,85
520,215	21,42
520,699	21,72
521,182	21,79
521,666	22,24
522,149	22,61
522,633	23,08
523,116	23,4
523,599	23,96
524,082	24,22
524,565	24,43
525,048	24,59
525,53	25,01
526,013	25,42
526,495	25,78
526,978	25,88
527,46	26,72
527,942	26,65
528,424	26,44
528,906	27,16
529,388	27,28
529,87	27,25
530,351	27,27
530,833	27,65
531,314	28,28
531,795	28,41
532,277	28,81
532,758	28,36
533,238	29
533,719	29,19
534,2	29,03
534,681	28,62
535,161	29,36
535,642	28,96
536,122	29,1
536,602	29,56
537,082	29,47
537,562	30,14
538,042	29,55
538,522	30
539,001	30,13
539,481	30,06
539,96	29,86
540,44	30,17
540,919	30,17
541,398	30,62
541,877	30,27
542,356	30,61
542,835	30,68
543,313	30,36
543,792	30,59
544,27	30,35
544,749	30,8
545,227	30,52
545,705	30,7
546,183	30,61
546,661	30,93
547,139	30,79
547,616	30,75
548,094	30,74
548,571	30,98
549,049	30,95
549,526	31,13
550,003	30,62
550,48	30,59
550,957	31,19
551,434	31,15
551,911	31,17
552,387	30,8
552,864	30,76
553,34	31,4
553,817	31,14
554,293	31,1
554,769	31,32
555,245	31,17
555,721	31,3
556,197	31,24
556,672	31,25
557,148	30,92
557,623	30,92
558,099	30,85
558,574	30,94
559,049	31,08
559,524	31,32
559,999	30,66
560,474	30,74
560,948	30,66
561,423	30,78
561,897	30,47
562,372	30,76
562,846	30,26
563,32	30,51
563,794	30,37
564,268	29,87
564,742	29,84
565,216	29,55
565,69	29,79
566,163	29,17
566,636	29,13
567,11	29,29
567,583	28,82
568,056	28,75
568,529	28,39
569,002	28,53
569,475	28,19
569,947	27,99
570,42	28,02
570,892	27,56
571,365	27,56
571,837	27,54
572,309	27,25
572,781	26,71
573,253	26,44
573,725	26,39
574,197	26,61
574,668	26,31
575,14	26,03
575,611	25,61
576,082	25,53
576,554	25,41
577,025	25,29
577,496	24,9
577,967	24,65
578,437	24,53
578,908	24,69
579,379	24,62
579,849	24,55
580,319	24,2
580,79	23,89
581,26	23,95
581,73	24,02
582,2	23,85
582,669	23,4
583,139	23,67
583,609	23,12
584,078	23,2
584,548	22,79
585,017	22,95
585,486	22,72
585,955	22,78
586,424	22,56
586,893	22,57
587,362	22,39
587,83	22,22
588,299	22,26
588,767	22,42
589,236	21,98
589,704	22,19
590,172	21,89
590,64	21,69
591,108	21,81
591,576	21,74
592,043	21,29
592,511	21,31
592,978	21,33
593,446	21,68
593,913	21,39
594,38	21,25
594,847	21,35
595,314	21,19
595,781	20,69
596,248	21,16
596,715	21,01
597,181	20,89
597,647	21,1
598,114	20,86
598,58	21,07
599,046	20,59
599,512	20,88
599,978	20,68
600,444	20,89
600,91	20,6
601,375	20,7
601,841	20,77
602,306	20,68
602,771	20,47
603,236	20,21
603,702	20,46
604,167	20,07
604,631	20,33
605,096	20,22
605,561	19,95
606,025	20,01
606,49	19,67
606,954	19,82
607,418	19,82
607,882	19,71
608,347	19,45
608,81	19,27
609,274	19,29
609,738	19,19
610,202	19,33
610,665	18,98
611,128	19,11
611,592	19,01
612,055	18,75
612,518	18,7
612,981	18,64
613,444	18,39
613,907	18,32
614,369	18,09
614,832	18,15
615,294	17,89
615,757	17,98
616,219	17,92
616,681	17,63
617,143	17,61
617,605	17,39
618,067	17,47
618,529	17,72
618,99	17,36
619,452	17,5
619,913	17,28
620,375	17,03
620,836	17,32
621,297	16,98
621,758	16,98
622,219	16,83
622,68	16,82
623,14	16,67
623,601	16,57
624,061	16,53
624,522	16,49
624,982	16,58
625,442	16,6
625,902	16,46
626,362	16,51
626,822	16,28
627,282	16,39
627,742	16,48
628,201	16,22
628,661	16,35
629,12	16,26
629,579	16,37
630,038	16,21
630,497	16,26
630,956	16,05
631,415	16,25
631,874	16,06
632,332	16,07
632,791	15,97
633,249	16,12
633,708	15,85
634,166	15,81
634,624	15,87
635,082	15,71
635,54	15,51
635,998	15,76
636,455	15,57
636,913	15,36
637,37	15,25
637,828	15,14
638,285	15,06
638,742	14,85
639,199	14,77
639,656	14,62
640,113	14,38
640,57	14,25
641,027	14,29
641,483	13,96
641,94	13,98
642,396	13,68
642,852	13,73
643,309	13,51
643,765	13,24
644,221	13,19
644,676	13,24
645,132	12,96
645,588	12,82
646,043	12,66
646,499	12,53
646,954	12,52
647,409	12,27
647,864	12,16
648,319	11,94
648,774	11,92
649,229	11,88
649,684	11,89
650,139	11,68
650,593	11,54
651,047	11,6
651,502	11,5
651,956	11,38
652,41	11,35
652,864	11,31
653,318	11,31
653,772	11,22
654,225	11,16
654,679	11,09
655,133	11,04
655,586	11,01
656,039	10,85
656,492	10,85
656,946	10,81
657,399	10,67
657,851	10,53
658,304	10,68
658,757	10,45
659,209	10,38
659,662	10,27
660,114	10,17
660,567	10,18
661,019	9,97
661,471	9,92
661,923	9,79
662,375	9,86
662,826	9,65
663,278	9,52
663,73	9,57
664,181	9,34
664,632	9,4
665,084	9,29
665,535	9,21
665,986	9,24
666,437	9,19
666,888	9,06
667,338	9,01
667,789	9,15
668,24	9,08
668,69	8,94
669,14	9
669,591	9,04
670,041	8,97
670,491	9,14
670,941	9,05
671,391	9,2
671,84	9,07
672,29	9,15
672,74	9,24
673,189	9,34
673,638	9,37
674,088	9,43
674,537	9,56
674,986	9,54
675,435	9,63
675,883	9,71
676,332	9,77
676,781	9,89
677,229	10,05
677,678	10,08
678,126	10,21
678,574	10,37
679,022	10,46
679,47	10,6
679,918	10,68
680,366	10,77
680,814	10,8
681,261	10,99
681,709	11,23
682,156	11,25
682,604	11,5
683,051	11,53
683,498	11,72
683,945	11,64
684,392	12,08
684,839	12,22
685,286	12,33
685,732	12,51
686,179	12,49
686,625	12,87
687,071	12,99
687,518	13,25
687,964	13,74
688,41	13,84
688,856	14,03
689,301	14,51
689,747	14,89
690,193	15,07
690,638	15,65
691,084	16
691,529	16,5
691,974	16,9
692,419	17,5
692,864	17,89
693,309	18,51
693,754	19,12
694,199	19,8
694,643	20,42
695,088	20,9
695,532	21,47
695,977	22
696,421	22,82
696,865	23,33
697,309	24,01
697,753	24,78
698,197	25,16
698,64	25,9
699,084	26,23
699,527	26,94
699,971	27,48
700,414	28,3
700,857	28,67
701,3	29,28
701,743	29,72
702,186	30,28
702,629	30,9
703,072	31,25
703,515	31,89
703,957	32,49
704,399	32,98
704,842	33,32
705,284	33,83
705,726	34,25
706,168	34,79
706,61	35,23
707,052	35,66
707,494	35,97
707,935	36,29
708,377	37,05
708,818	37,2
709,26	37,64
709,701	38,05
710,142	38,61
710,583	38,69
711,024	39,29
711,465	39,34
711,905	39,89
712,346	40,2
712,787	40,62
713,227	41,07
713,667	41,35
714,108	41,35
714,548	42,16
714,988	42,33
715,428	42,26
715,868	42,94
716,307	43,13
716,747	43,69
717,186	43,77
717,626	44,26
718,065	44,15
718,504	44,52
718,944	44,67
719,383	45,11
719,822	45,25
720,261	45,32
720,699	45,79
721,138	45,9
721,576	46,41
722,015	46,52
722,453	46,18
722,892	46,99
723,33	46,83
723,768	47,16
724,206	47,22
724,644	47,51
725,081	47,92
725,519	47,76
725,957	47,81
726,394	48,28
726,832	48,28
727,269	48,57
727,706	48,47
728,143	48,83
728,58	48,89
729,017	48,89
729,454	48,97
729,89	48,92
730,327	49,28
730,764	49,09
731,2	49,36
731,636	49,39
732,072	49,43
732,509	49,64
732,945	50,12
733,38	50,3
733,816	49,88
734,252	49,78
734,688	50,09
735,123	50,14
735,559	50,01
735,994	50,25
736,429	50,46
736,864	50,34
737,299	50,06
737,734	50,64
738,169	50,59
738,604	50,53
739,038	50,32
739,473	50,66
739,907	50,54
740,342	50,52
740,776	50,38
741,21	50,55
741,644	50,57
742,078	50,41
742,512	50,85
742,946	50,19
743,379	50,65
743,813	50,44
744,246	50,49
744,68	50
745,113	50,38
745,546	50,66
745,979	50,4
746,412	50,79
746,845	50,39
747,278	50,18
747,711	50,3
748,143	50,59
748,576	50,41
749,008	50,67
749,441	50,31
749,873	50,23
750,305	50,3
750,737	49,97
751,169	50,15
751,601	50,44
752,032	49,98
752,464	50,01
752,896	50,09
753,327	50,21
753,758	50,03
754,19	49,87
754,621	49,88
755,052	49,8
755,483	49,77
755,914	49,91
756,344	49,76
756,775	49,78
757,206	49,8
757,636	49,6
758,066	49,59
758,497	49,57
758,927	49,57
759,357	49,58
759,787	49,36
760,217	49,24
760,647	49,46
761,076	49,29
761,506	49,26
761,935	49,18
762,365	49,23
762,794	49,15
763,223	48,98
763,653	49,3
764,082	49,23
764,51	48,89
764,939	49,05
765,368	49,13
765,797	49,04
766,225	49,05
766,654	48,97
767,082	49,2
767,51	48,49
767,938	48,86
768,367	48,62
768,795	48,6
769,222	48,91
769,65	48,61
770,078	48,36
770,505	48,51
770,933	48,59
771,36	48,5
771,788	48,42
772,215	48,54
772,642	48,36
773,069	48,6
773,496	48,46
773,923	48,14
774,349	48,23
774,776	48,22
775,203	47,87
775,629	48,52
776,055	47,93
776,482	48,33
776,908	48,28
777,334	48,04
777,76	48,3
778,186	48,17
778,611	48,17
779,037	47,96
779,463	47,96
779,888	48,15
780,314	48,1
780,739	48,07
781,164	47,75
781,589	48,16
782,014	47,96
782,439	48,03
782,864	48,01
783,289	47,99
783,713	47,72
784,138	47,95
784,562	48,15
784,987	47,71
785,411	47,88
785,835	47,88
786,259	47,44
786,683	47,69
787,107	47,91
787,531	47,71
787,954	47,86
788,378	47,83
788,802	47,68
789,225	47,72
789,648	47,71
790,071	48,06
790,495	48,01
790,918	47,41
791,34	48,04
791,763	47,79
792,186	47,8
792,609	47,65
793,031	47,46
793,454	47,62
793,876	47,68
794,298	47,58
794,721	47,49
795,143	47,75
795,565	47,45
795,986	47,65
796,408	47,44
796,83	47,55
797,252	47,59
797,673	47,36
798,094	47,77
798,516	47,58
798,937	47,29
799,358	47,54
799,779	47,69
800,2	47,52
800,621	47,2
801,042	47,63
801,462	47,79
801,883	47,53
802,303	47,46
802,724	47,28
803,144	47,57
803,564	47,46
803,984	47,61
804,404	47,33
804,824	47,66
805,244	47,43
805,664	47,5
806,084	47,25
806,503	47,15
806,923	47,27
807,342	47,21
807,761	47,2
808,18	47,6
808,599	47,32
809,018	47,28
809,437	47,29
809,856	47,36
810,275	47,19
810,693	47,24
811,112	47,27
811,53	47,39
811,949	47,38
812,367	46,88
812,785	47,12
813,203	47,06
813,621	47,09
814,039	47,03
814,457	47,47
814,874	47,27
815,292	47,27
815,709	47,4
816,127	47,09
816,544	47,59
816,961	47,15
817,378	47,02
817,795	47,08
818,212	47,38
818,629	47,38
819,046	47,64
819,462	47,34
819,879	47,42
820,295	47,06
820,712	47,13
821,128	47,46
821,544	47,02
821,96	47,32
822,376	47,01
822,792	47,18
823,208	47,1
823,624	47,05
824,039	47
824,455	47,2
824,87	47,38
825,286	47,13
825,701	46,88
826,116	47,35
826,531	46,95
826,946	46,95
827,361	47,14
827,776	47,26
828,19	46,9
828,605	47,01
829,02	47,09
829,434	46,99
829,848	47,13
830,263	47,05
830,677	46,98
831,091	47,38
831,505	46,85
831,919	46,95
832,332	46,79
832,746	46,97
833,16	46,95
833,573	47,01
833,987	46,8
834,4	46,98
834,813	47,17
835,226	47,15
835,639	47
836,052	47
836,465	47,11
836,878	46,82
837,29	47,12
837,703	46,87
838,116	47,24
838,528	46,72
838,94	46,82
839,352	47,02
839,765	47,07
840,177	46,76
840,589	46,96
841	46,93
841,412	46,73
841,824	46,89
842,235	46,87
842,647	46,59
843,058	46,81
843,47	46,94
843,881	46,76
844,292	46,86
844,703	46,91
845,114	46,8
845,525	46,98
845,935	46,89
846,346	46,58
846,757	46,64
847,167	47,17
847,577	46,65
847,988	46,65
848,398	46,89
848,808	46,58
849,218	47,13
849,628	46,56
850,038	46,86
850,448	46,71
850,857	46,62
851,267	46,62
851,676	47
852,086	46,74
852,495	46,63
852,904	46,88
853,313	46,72
853,722	46,65
854,131	46,67
854,54	46,56
854,949	46,95
855,357	46,8
855,766	46,53
856,174	46,34
856,583	46,9
856,991	46,42
857,399	46,72
857,807	46,61
858,215	46,77
858,623	46,71
859,031	46,69
859,439	46,73
859,846	46,8
860,254	46,55
860,661	46,83
861,069	46,51
861,476	46,55
861,883	46,89
862,29	46,73
862,697	46,63
863,104	46,65
863,511	46,68
863,918	46,48
864,325	46,53
864,731	46,75
865,138	46,65
865,544	47,02
865,95	46,41
866,357	46,77
866,763	46,62
867,169	46,39
867,575	46,35
867,98	46,44
868,386	46,48
868,792	47,01
869,197	46,86
869,603	46,44
870,008	46,68
870,414	46,64
870,819	46,56
871,224	46,51
871,629	46,43
872,034	46,43
872,439	46,4
872,844	46,34
873,248	46,53
873,653	46,6
874,057	46,57
874,462	46,34
874,866	46,45
875,27	46,39
875,674	46,98
876,078	46,52
876,482	46,78
876,886	46,53
877,29	46,33
877,694	46,49
878,097	46,51
878,501	46,62
878,904	46,28
879,308	46,85
879,711	46,6
880,114	46,53
880,517	46,58
880,92	46,3
881,323	46,68
881,726	46,56
882,128	46,77
882,531	46,9
882,934	46,59
883,336	46,24
883,738	46,47
884,141	46,65
884,543	46,48
884,945	46,73
885,347	46,58
885,749	46,49
886,151	46,5
886,552	46,72
886,954	46,63
887,355	46,63
887,757	46,67
888,158	46,47
888,56	46,33
888,961	46,67
889,362	46,69
889,763	46,31
890,164	46,68
890,565	46,44
890,965	46,66
891,366	46,67
891,767	46,54
892,167	46,75
892,567	46,2
892,968	46,74
893,368	46,74
893,768	46,34
894,168	46,66
894,568	46,7
894,968	46,52
895,368	46,19
895,767	46,6
896,167	46,57
896,566	46,47
896,966	45,91
897,365	46,45
897,764	46,52
898,164	46,64
898,563	46,53
898,962	46,3
899,361	46,3
899,759	46,76
900,158	46,51
900,557	46,67
900,955	46,69
901,354	46,65
901,752	46,69
902,15	46,8
902,548	46,57
902,947	46,48
903,345	46,45
903,742	46,87
904,14	46,54
904,538	46,63
904,936	46,7
905,333	46,56
905,731	46,69
906,128	46,6
906,525	46,86
906,923	46,93
907,32	46,7
907,717	46,49
908,114	46,52
908,511	46,3
908,907	46,93
909,304	46,47
909,701	46,42
910,097	46,58
910,494	45,99
910,89	46,3
911,286	46,52
911,682	46,35
912,078	46,63
912,474	46,64
912,87	46,41
913,266	46,59
913,662	46,32
914,058	46,5
914,453	46,15
914,849	46,06
915,244	46,36
915,639	46,7
916,034	46,29
916,43	46,68
916,825	46,3
917,22	46,45
917,614	46,51
918,009	46,38
918,404	46,63
918,798	46,76
919,193	46,09
919,587	46,44
919,982	46,16
920,376	46,7
920,77	46,42
921,164	46,56
921,558	46,42
921,952	46,33
922,346	46,27
922,74	46,81
923,133	46,58
923,527	46,69
923,92	46,21
924,314	46,69
924,707	46,55
925,1	46,76
925,493	46,28
925,886	46,29
926,279	46,41
926,672	46,65
927,065	46,21
927,457	46,47
927,85	46,53
928,243	46,15
928,635	46,56
929,027	46,08
929,42	46,71
929,812	46,4
930,204	46,65
930,596	46,11
930,988	46,14
931,379	46,31
931,771	46,26
932,163	46,76
932,554	46,22
932,946	46,37
933,337	46,43
933,729	47,02
934,12	46,02
934,511	46,19
934,902	46,05
935,293	46,47
935,684	46,23
936,075	45,8
936,465	46,12
936,856	46,17
937,246	45,87
937,637	46,52
938,027	45,9
938,417	46,21
938,808	45,78
939,198	46,24
939,588	45,94
939,978	46,15
940,368	45,98
940,757	46,15
941,147	45,81
941,537	46,13
941,926	45,99
942,315	46,41
942,705	46,37
943,094	46,01
943,483	46,01
943,872	45,3
944,261	45,7
944,65	46,21
945,039	46,22
945,428	46,35
945,816	45,34
946,205	46,35
946,593	46
946,982	46,27
947,37	45,47
947,758	45,96
948,146	45,82
948,534	46,11
948,922	46,02
949,31	46,14
949,698	45,89
950,086	45,78
950,473	45,7
950,861	45,64
951,248	45,6
951,636	45,78
952,023	44,98
952,41	45,55
952,797	45,4
953,184	46,04
953,571	44,95
953,958	45,98
954,345	45,13
954,731	45,41
955,118	45,47
955,505	45,44
955,891	45,14
956,277	45,59
956,664	45,31
957,05	45,32
957,436	45,17
957,822	46,01
958,208	45,84
958,594	45,1
958,979	45,19
959,365	45,46
959,751	45,93
960,136	45,39
960,522	45,43
960,907	44,98
961,292	44,75
961,677	45,52
962,062	45,03
962,447	45,04
962,832	45,85
963,217	45,41
963,602	45,58
963,986	45,79
964,371	45,02
964,756	45,04
965,14	45,36
965,524	45,23
965,908	45,25
966,293	45,61
966,677	45,45
967,061	45,27
967,445	44,72
967,828	45,05
968,212	44,97
968,596	45,02
968,979	44,96
969,363	45,13
969,746	44,76
970,129	45,06
970,513	44,89
970,896	45,97
971,279	45,57
971,662	44,55
972,045	45,58
972,428	45,12
972,81	45
973,193	44,82
973,575	44,86
973,958	45,44
974,34	45,27
974,723	45,56
975,105	44,88
975,487	45,2
975,869	45,28
976,251	45,28
976,633	45,52
977,015	45,71
977,396	45,8
977,778	45,8
978,16	45,22
978,541	44,81
978,922	45,03
979,304	45,19
979,685	45,63
980,066	45,46
980,447	45,26
980,828	45,21
981,209	45,72
981,59	45,22
981,97	45,5
982,351	45,19
982,732	45,91
983,112	45,57
983,493	45,42
983,873	45,53
984,253	45,36
984,633	45,88
985,013	45,22
985,393	45,33
985,773	45,05
986,153	45,3
986,533	45,75
986,912	45,3
987,292	44,86
987,671	45,52
988,051	45,15
988,43	45,05
988,809	45,33
989,188	45,69
989,567	45,88
989,946	45,92
990,325	44,98
990,704	46,1
991,083	45,73
991,461	45,91
991,84	45,26
992,218	45,51
992,597	45,56
992,975	45,76
993,353	45,25
993,732	45,57
994,11	46,11
994,488	45,15
994,866	46,1
995,243	45,48
995,621	45,19
995,999	44,39
996,376	45,91
996,754	46,19
997,131	45,8
997,509	45,55
997,886	45,53
998,263	45,8
998,64	45,1
999,017	45,34
999,394	45,62
999,771	44,87
1000,148	45,39
1000,524	46,14
1000,901	45,46
1001,277	45,9
1001,654	45,81
1002,03	45,52
1002,406	45,55
1002,783	44,94
1003,159	46,13
1003,535	45,75
1003,911	45,95
1004,286	45,29
1004,662	45,46
1005,038	45,74
1005,414	46,31
1005,789	45,49
1006,164	45,43
1006,54	46,02
1006,915	45,76
1007,29	46,41
1007,665	45,7
1008,04	45,33
1008,415	45,9
1008,79	45,81
1009,165	46,05
1009,54	45,66
1009,914	45,85
1010,289	46,31
1010,663	45,98
1011,038	45,06
1011,412	45,83
1011,786	45,72
1012,16	45,9
1012,535	45,43
1012,909	46,03
1013,282	46,59
1013,656	45,62
1014,03	45,65
1014,404	45,46
1014,777	45,85
1015,151	45,43
1015,524	46,23
1015,897	46,63
1016,271	46,55
1016,644	45,89
1017,017	45,96
1017,39	45,41
1017,763	45,83
1018,136	45,97
1018,508	46,46
1018,881	46,17
1019,254	46,42
1019,626	45,67
1019,999	45,95
1020,371	45,82
1020,743	46,22
1021,116	46,09
1021,488	45,56
1021,86	45,93
1022,232	45,97
1022,604	46,09
1022,975	46,26
1023,347	45,62
1023,719	45,96
1024,09	44,83
1024,462	45,63
1024,833	45,81
1025,204	46,04
1025,576	45,84
1025,947	46,02
1026,318	45,54
1026,689	46,15
1027,06	45,41
1027,431	45,19
1027,801	46,14
1028,172	46,55
1028,543	45,81
1028,913	45,37
1029,284	45,45
1029,654	45,65
1030,024	45,85
1030,394	46,13
1030,764	46,22
1031,135	46,28
1031,504	46,47
1031,874	45,62
1032,244	46,26
1032,614	46,63
1032,983	45,67
1033,353	45,71
1033,722	46,21
1034,092	45,67
1034,461	45,93
1034,83	45,93
1035,2	46,42
1035,569	46,16
1035,938	46,38
1036,307	46,61
1036,675	45,37
1037,044	45,97
1037,413	45,47
1037,781	46,11
1038,15	45,95
1038,518	46,84
1038,887	46,56
1039,255	45,08
1039,623	45,21
1039,991	46,15
1040,359	45,36
1040,727	45,98
1041,095	45,65
1041,463	46,48
1041,831	45,58
1042,198	46,53
1042,566	45,94
1042,933	46,32
1043,301	45,66
1043,668	45,72
1044,035	46,2
1044,402	46,65
1044,77	46,58
1045,137	47,24
1045,503	45,48
1045,87	46,96
1046,237	45,15
1046,604	45,2
1046,97	46,53
1047,337	46,16
1047,703	45,51
1048,07	47,13
1048,436	46,01
1048,802	45,73
1049,168	46,6
1049,534	46,06
1049,9	45,89
1050,266	46,46
1050,632	46,26
1050,998	46,08
1051,364	46,38
1051,729	46,27
1052,095	46,23
1052,46	46,45
1052,825	46,81
1053,191	45,99
1053,556	47,55
1053,921	46,16
1054,286	46,26
1054,651	45,94
1055,016	47,24
1055,381	46,19
1055,745	46,36
1056,11	47,67
1056,475	45,98
1056,839	47,27
1057,203	45,91
1057,568	46,14
1057,932	45,92
1058,296	46
1058,66	45,72
1059,024	47,2
1059,388	46,18
1059,752	47,73
1060,116	46,66
1060,48	47,08
1060,843	46,23
1061,207	45,63
1061,57	47,48
1061,934	45,91
1062,297	47,17
1062,66	46,84
1063,023	46,49
1063,386	45,64
1063,749	46,18
1064,112	45,23
1064,475	46,23
1064,838	46,61
1065,201	46,23
1065,563	46,03
1065,926	46,26
1066,288	47,55
1066,651	45,77
1067,013	45,49
1067,375	45,11
1067,737	46,47
1068,099	46,75
1068,461	45,57
1068,823	46,67
1069,185	45,73
1069,547	45,22
1069,909	47,39
1070,27	46,38
1070,632	45,96
1070,993	44,99
1071,355	45,71
1071,716	46,53
1072,077	46,54
1072,438	47,32
1072,799	45,77
1073,16	47,05
1073,521	46,25
1073,882	46,15
1074,243	45,01
1074,603	45,94
1074,964	45,96
1075,325	47,3
1075,685	47
1076,045	46,61
1076,406	44,57
1076,766	45,99
1077,126	46,75
1077,486	45,12
1077,846	45,85
1078,206	46,72
1078,566	47,45
1078,925	46,62
1079,285	46,11
1079,645	48,09
1080,004	44,93
1080,364	46,12
1080,723	46,05
1081,082	46,95
1081,442	46,08
1081,801	47,48
1082,16	46,84
1082,519	47,89
1082,878	45,61
1083,237	46,19
1083,595	46,64
1083,954	46,24
1084,313	45,71
1084,671	46,27
1085,03	46,78
1085,388	45,99
1085,746	46,44
1086,104	46,06
1086,463	46,75
1086,821	45,69
1087,179	48,17
1087,537	47,48
1087,894	45,17
1088,252	46,09
1088,61	46,12
1088,967	46,97
1089,325	45,76
1089,682	45,52
1090,04	46,52
1090,397	45,74
1090,754	46,72
1091,111	47,49
1091,469	45,09
1091,826	47,3
1092,182	44,43
1092,539	45,73
1092,896	46,34
1093,253	46,85
1093,609	46,8
1093,966	46,88
1094,322	45,35
1094,679	47,35
1095,035	46,08
1095,391	47
1095,748	47,28
1096,104	45,64
1096,46	46,29
1096,816	46,17
1097,171	47,33
1097,527	45,46
1097,883	47,17
1098,239	47,62
1098,594	45,47
1098,95	46,77
1099,305	46,15
1099,66	47,16
1100,016	46,21
1100,371	47,1
1100,726	45,14
1101,081	45,25
1101,436	44,25
1101,791	46,72
1102,146	45,92
1102,5	46,14
1102,855	47,4
1103,21	45,31
1103,564	47,63
1103,918	46,02
1104,273	45,51
1104,627	47,94
1104,981	45,32
1105,335	47,55
1105,69	47,04
1106,043	47,23
1106,397	46,3
1106,751	47,23
1107,105	48,68
1107,459	43,39
1107,812	47,4
1108,166	46,13
1108,519	45,24
1108,873	47,31
1109,226	47,84
1109,579	46,45
1109,932	46,06
1110,285	46,64
1110,638	47,19
1110,991	46,94
1111,344	47,39
1111,697	47,33
1112,05	48,97
1112,402	47,97
1112,755	46,19
1113,107	46,35
1113,46	44,39
1113,812	48,59
1114,164	46,98
1114,517	46,42
1114,869	50,43
1115,221	57,26
1115,573	39,62
1115,924	45,99
