Data from G_2__Relative__5__00144.txt Node

Date: Mon Jan 29 18:24:54 CET 2024
User: diatiterra
Spectrometer: HDX00911
Trigger mode: 0
Integration Time (sec): 6,000000E-3
Scans to average: 2
Nonlinearity correction enabled: false
Boxcar width: 0
Storing dark spectrum: false
XAxis mode: Wavelengths
Number of Pixels in Spectrum: 2068
>>>>>Begin Spectral Data<<<<<
194,468	73,53
195,025	40,71
195,581	61,7
196,138	55,38
196,694	56,9
197,251	46,67
197,807	45,6
198,363	45,09
198,919	42,7
199,474	47,86
200,03	43,38
200,586	40,48
201,141	45,69
201,696	38,41
202,251	46,86
202,806	46,24
203,361	45,26
203,916	50
204,471	41,9
205,025	44,29
205,58	44,09
206,134	41,48
206,688	40,58
207,242	46,26
207,796	46,1
208,35	41,88
208,904	41,02
209,457	47,65
210,011	37,41
210,564	37,15
211,117	38,03
211,67	40,85
212,223	41,78
212,776	56,18
213,329	41,58
213,881	36,07
214,434	44,48
214,986	42,76
215,538	44,32
216,09	43,93
216,642	47,04
217,194	42,38
217,746	42,42
218,297	41,28
218,849	39,25
219,4	44,76
219,951	46,18
220,502	39,02
221,053	39,5
221,604	44,63
222,155	51,03
222,705	38,13
223,256	52,16
223,806	38,78
224,356	45,65
224,906	37,41
225,456	40,69
226,006	44,63
226,556	45,62
227,106	41,61
227,655	41,81
228,204	38,49
228,754	44,83
229,303	40,34
229,852	40,85
230,401	45,16
230,949	55,25
231,498	45,15
232,047	43,43
232,595	47,16
233,143	56,06
233,691	47,2
234,239	45,15
234,787	38,81
235,335	46,6
235,883	43,73
236,43	45,93
236,978	44,36
237,525	42,16
238,072	39,11
238,619	38,36
239,166	46,13
239,713	45,35
240,26	46,82
240,806	45,74
241,353	48,06
241,899	43,04
242,445	44,76
242,991	47,74
243,537	47,19
244,083	46,18
244,629	44,26
245,174	61,57
245,72	45,82
246,265	48,41
246,81	50
247,355	45,96
247,9	41,87
248,445	51,72
248,99	42,91
249,534	42,09
250,079	47,01
250,623	43,05
251,168	48,99
251,712	46,81
252,256	42,19
252,8	49,65
253,343	39,17
253,887	37,76
254,43	52,79
254,974	48,6
255,517	42,62
256,06	44,86
256,603	48,3
257,146	42,42
257,689	43,99
258,232	41,38
258,774	47,6
259,317	46,89
259,859	43,17
260,401	52,65
260,943	52,61
261,485	50,71
262,027	45,52
262,569	51,13
263,11	44,4
263,652	42,65
264,193	47,86
264,734	42,86
265,275	42,97
265,816	48,2
266,357	49,28
266,898	38,57
267,438	44,31
267,979	40,73
268,519	42,6
269,059	45,74
269,6	46,67
270,14	38,61
270,68	42,91
271,219	45,61
271,759	39,18
272,298	40,36
272,838	40,31
273,377	41,11
273,916	40,43
274,455	43,68
274,994	46,4
275,533	39,59
276,072	43,61
276,61	39,59
277,149	46,74
277,687	45,2
278,225	38,7
278,763	52,17
279,301	49,06
279,839	40,22
280,377	39,05
280,914	41,39
281,452	52,44
281,989	45,39
282,526	47,31
283,064	48,61
283,601	51,52
284,137	45,26
284,674	46,79
285,211	41,01
285,747	41,36
286,284	44,56
286,82	46,1
287,356	44,33
287,892	41,4
288,428	44,41
288,964	48,38
289,5	51,02
290,035	52,16
290,571	45,15
291,106	52,73
291,641	41,76
292,176	50,38
292,711	47,24
293,246	40,43
293,781	45,72
294,315	40,81
294,85	49,27
295,384	45,93
295,918	50,17
296,453	43,82
296,987	45,86
297,52	45,21
298,054	50
298,588	48,43
299,121	43,59
299,655	44,91
300,188	43,73
300,721	44,14
301,254	52,31
301,787	44,31
302,32	55,3
302,853	46,34
303,385	50,18
303,918	50,18
304,45	52,51
304,982	46,61
305,514	44,28
306,046	41,05
306,578	50,36
307,11	50,19
307,641	39,64
308,173	47,21
308,704	50,57
309,236	46,07
309,767	50,83
310,298	44,25
310,829	49,05
311,359	48,04
311,89	39,15
312,421	46,74
312,951	58,91
313,481	50,2
314,012	49,08
314,542	49,32
315,072	43,64
315,601	43,06
316,131	41,97
316,661	48,33
317,19	37,01
317,72	46,15
318,249	42,57
318,778	43,35
319,307	41,22
319,836	42,62
320,365	43,65
320,893	48,23
321,422	45,15
321,95	49,63
322,479	48,1
323,007	52,54
323,535	42,64
324,063	44,78
324,591	42,33
325,118	44,41
325,646	49,62
326,173	51,43
326,701	44,36
327,228	46,33
327,755	45,16
328,282	56,6
328,809	42,59
329,336	41,52
329,862	46,92
330,389	43,69
330,915	39,72
331,441	37,63
331,968	43,3
332,494	39,46
333,02	39,05
333,545	40,43
334,071	46
334,597	42,23
335,122	37,46
335,648	43,96
336,173	46,86
336,698	44,86
337,223	40,61
337,748	40,7
338,272	40,59
338,797	44,34
339,322	41,2
339,846	34,38
340,37	40,29
340,894	38,36
341,419	41,95
341,942	37,25
342,466	41,3
342,99	36,31
343,514	36,69
344,037	34,1
344,56	34,8
345,084	38,49
345,607	36,78
346,13	40
346,653	34,59
347,175	39,35
347,698	31,85
348,221	42,73
348,743	33,24
349,265	30,95
349,787	34,57
350,309	33,61
350,831	33,13
351,353	29,63
351,875	32,02
352,397	33,61
352,918	33,9
353,439	40,38
353,961	35,21
354,482	35,67
355,003	31,9
355,524	35,71
356,044	33,77
356,565	35,91
357,086	32,32
357,606	29,16
358,126	30,41
358,646	27,86
359,167	29,98
359,687	31,84
360,206	27,95
360,726	24,69
361,246	31,81
361,765	29,39
362,285	26,54
362,804	24,22
363,323	28,67
363,842	26,9
364,361	26,19
364,88	29,32
365,398	27,81
365,917	25,46
366,435	25,11
366,954	28,66
367,472	23,45
367,99	25,26
368,508	28,12
369,026	28,1
369,544	22,18
370,061	25,83
370,579	25,7
371,096	28,47
371,613	26,42
372,131	23,94
372,648	26,35
373,165	30,33
373,681	24,17
374,198	24,1
374,715	22,4
375,231	21,3
375,747	25,95
376,264	17,25
376,78	23,92
377,296	22,47
377,812	23,59
378,327	19,11
378,843	23,34
379,359	22,17
379,874	22,68
380,389	23,66
380,905	20,56
381,42	20,37
381,935	21,47
382,449	20,08
382,964	23,39
383,479	19,67
383,993	20,43
384,508	19,2
385,022	19,72
385,536	20,47
386,05	20,53
386,564	21,83
387,078	17,59
387,592	18,12
388,105	17,99
388,619	17,5
389,132	18,92
389,645	18,62
390,158	16,19
390,671	18,59
391,184	16,84
391,697	18,02
392,21	16,35
392,722	18,43
393,235	17,27
393,747	14,97
394,259	17,95
394,771	15,02
395,283	14,81
395,795	15,45
396,307	15,8
396,818	14,6
397,33	14,51
397,841	14,8
398,353	14,3
398,864	14,04
399,375	13,09
399,886	13,49
400,397	12,85
400,907	14,03
401,418	11,69
401,928	12,76
402,439	11,86
402,949	11,92
403,459	13,5
403,969	10,7
404,479	11,11
404,989	11,07
405,498	9,63
406,008	10,17
406,517	9,81
407,027	10,05
407,536	9,29
408,045	9,26
408,554	8,31
409,063	8,2
409,572	7,72
410,08	7,8
410,589	6,65
411,097	7,66
411,606	8,34
412,114	7,73
412,622	7,18
413,13	7,27
413,638	6,42
414,145	6,14
414,653	6,49
415,16	6,07
415,668	5,83
416,175	6,26
416,682	5,68
417,189	5,38
417,696	5,29
418,203	5,77
418,71	5,3
419,216	5,22
419,723	5,31
420,229	5,44
420,735	5,07
421,242	5,01
421,748	5,55
422,254	4,51
422,759	4,97
423,265	4,77
423,771	4,98
424,276	5,14
424,781	4,93
425,287	4,63
425,792	4,97
426,297	4,8
426,802	4,37
427,306	4,6
427,811	4,58
428,316	4,49
428,82	4,66
429,324	4,3
429,829	4,46
430,333	4,16
430,837	4,26
431,34	4,34
431,844	4,03
432,348	4,18
432,851	4,06
433,355	4,46
433,858	4,05
434,361	4,15
434,864	3,89
435,367	3,94
435,87	4,44
436,373	4,25
436,876	3,98
437,378	4,04
437,88	4,06
438,383	4,03
438,885	4,15
439,387	4,03
439,889	3,83
440,391	4,14
440,892	3,9
441,394	3,85
441,896	4,21
442,397	3,66
442,898	4,26
443,399	4,2
443,9	4,27
444,401	4,09
444,902	3,96
445,403	3,74
445,903	4,16
446,404	4,14
446,904	3,98
447,405	4,03
447,905	3,99
448,405	4,06
448,905	4,24
449,404	3,93
449,904	4,09
450,404	3,92
450,903	4,02
451,403	4,08
451,902	4,15
452,401	4,28
452,9	4,21
453,399	4,23
453,898	4,17
454,396	3,98
454,895	3,9
455,393	4,06
455,892	4,14
456,39	4,08
456,888	3,87
457,386	3,94
457,884	4,33
458,382	4,08
458,879	4,14
459,377	4,15
459,874	4,1
460,372	3,88
460,869	4,11
461,366	3,95
461,863	4,23
462,36	4,01
462,857	4,06
463,353	4,22
463,85	4
464,346	3,97
464,843	3,88
465,339	3,98
465,835	3,88
466,331	3,93
466,827	4,02
467,323	3,77
467,818	3,91
468,314	4,15
468,809	3,84
469,305	3,98
469,8	4,1
470,295	4,09
470,79	4,1
471,285	4,06
471,78	3,86
472,274	3,9
472,769	3,84
473,263	4,09
473,758	3,85
474,252	4,07
474,746	4,1
475,24	4,05
475,734	3,93
476,228	4,01
476,721	4,06
477,215	3,96
477,708	3,98
478,202	4,11
478,695	3,83
479,188	4,02
479,681	4,11
480,174	3,93
480,667	4,04
481,159	4,09
481,652	4,05
482,144	3,96
482,637	3,92
483,129	4,1
483,621	4,23
484,113	4,11
484,605	4,05
485,097	4,02
485,588	4,11
486,08	4,06
486,571	3,99
487,063	3,99
487,554	4,02
488,045	4,18
488,536	4,1
489,027	4,2
489,518	4,1
490,008	4,22
490,499	3,97
490,989	4,04
491,48	4,06
491,97	4,16
492,46	3,99
492,95	4,27
493,44	4,26
493,93	4,18
494,419	4,24
494,909	4,29
495,398	4,24
495,888	4,2
496,377	4,43
496,866	4,5
497,355	4,5
497,844	4,53
498,333	4,72
498,821	4,56
499,31	4,63
499,798	4,65
500,287	4,81
500,775	4,84
501,263	4,76
501,751	4,85
502,239	4,96
502,727	5,16
503,215	5,05
503,702	5,11
504,19	5,43
504,677	5,25
505,164	5,54
505,651	5,46
506,139	5,52
506,625	5,7
507,112	5,76
507,599	5,89
508,086	5,95
508,572	6,05
509,058	6,21
509,545	6,26
510,031	6,77
510,517	7,05
511,003	6,96
511,489	7,25
511,974	7,09
512,46	7,46
512,946	7,56
513,431	7,77
513,916	8
514,401	7,84
514,887	8,39
515,371	8,62
515,856	8,76
516,341	9,01
516,826	9,3
517,31	9,39
517,795	9,59
518,279	9,84
518,763	10,1
519,247	10,23
519,731	10,67
520,215	10,86
520,699	11,31
521,182	11,35
521,666	11,76
522,149	11,91
522,633	12,12
523,116	12,68
523,599	12,78
524,082	12,93
524,565	13,3
525,048	13,19
525,53	13,59
526,013	14,12
526,495	14,26
526,978	14,26
527,46	14,98
527,942	14,89
528,424	15,09
528,906	15,2
529,388	14,97
529,87	15,76
530,351	15,7
530,833	16,03
531,314	15,98
531,795	16,25
532,277	16,47
532,758	16,46
533,238	16,58
533,719	16,87
534,2	17,13
534,681	17,07
535,161	17,15
535,642	17,01
536,122	17,07
536,602	17,67
537,082	17,35
537,562	17,34
538,042	17,51
538,522	17,74
539,001	17,44
539,481	17,78
539,96	17,73
540,44	18
540,919	18,14
541,398	17,82
541,877	18,21
542,356	18,02
542,835	18,16
543,313	18,18
543,792	18,3
544,27	18,13
544,749	18,41
545,227	18,33
545,705	18,2
546,183	18,44
546,661	18,26
547,139	18,4
547,616	18,36
548,094	19,21
548,571	18,64
549,049	18,63
549,526	18,57
550,003	18,48
550,48	18,47
550,957	18,97
551,434	18,69
551,911	18,84
552,387	18,99
552,864	18,85
553,34	18,89
553,817	19
554,293	18,94
554,769	18,6
555,245	18,76
555,721	18,62
556,197	18,66
556,672	18,63
557,148	18,65
557,623	18,8
558,099	18,49
558,574	18,65
559,049	18,78
559,524	18,59
559,999	18,49
560,474	18,32
560,948	18,21
561,423	18,17
561,897	18,25
562,372	18,17
562,846	18,11
563,32	17,69
563,794	17,72
564,268	17,56
564,742	17,44
565,216	17,39
565,69	17,24
566,163	17,07
566,636	17,08
567,11	16,84
567,583	16,65
568,056	16,49
568,529	16,63
569,002	16,34
569,475	16
569,947	15,9
570,42	16
570,892	15,79
571,365	15,54
571,837	15,57
572,309	15,19
572,781	15,29
573,253	14,78
573,725	14,8
574,197	14,75
574,668	14,6
575,14	14,33
575,611	14,19
576,082	14,1
576,554	14,03
577,025	14,08
577,496	13,59
577,967	13,6
578,437	13,72
578,908	13,31
579,379	13,11
579,849	13,29
580,319	13,14
580,79	13,1
581,26	13,05
581,73	12,99
582,2	12,79
582,669	12,85
583,139	12,77
583,609	12,4
584,078	12,44
584,548	12,24
585,017	12,05
585,486	12,09
585,955	12,02
586,424	12,28
586,893	11,91
587,362	11,85
587,83	11,62
588,299	11,84
588,767	11,72
589,236	11,56
589,704	11,56
590,172	11,65
590,64	11,41
591,108	11,33
591,576	11,37
592,043	11,19
592,511	11,2
592,978	11,28
593,446	11,16
593,913	11,23
594,38	11,15
594,847	11,06
595,314	11,06
595,781	11,07
596,248	10,94
596,715	10,86
597,181	10,9
597,647	10,93
598,114	10,88
598,58	10,7
599,046	10,85
599,512	10,89
599,978	10,8
600,444	10,87
600,91	10,72
601,375	10,82
601,841	10,7
602,306	10,65
602,771	10,6
603,236	10,66
603,702	10,56
604,167	10,45
604,631	10,58
605,096	10,48
605,561	10,43
606,025	10,3
606,49	10,16
606,954	10,04
607,418	9,93
607,882	10,05
608,347	10,02
608,81	9,87
609,274	9,86
609,738	9,73
610,202	9,7
610,665	9,49
611,128	9,51
611,592	9,6
612,055	9,36
612,518	9,39
612,981	9,16
613,444	9,04
613,907	9,06
614,369	9,1
614,832	9,01
615,294	8,89
615,757	8,83
616,219	8,87
616,681	8,67
617,143	8,52
617,605	8,5
618,067	8,51
618,529	8,44
618,99	8,33
619,452	8,38
619,913	8,27
620,375	8,3
620,836	8,11
621,297	8,26
621,758	8,1
622,219	7,89
622,68	7,99
623,14	8,08
623,601	7,91
624,061	7,88
624,522	7,96
624,982	7,85
625,442	7,91
625,902	7,86
626,362	7,76
626,822	7,73
627,282	7,74
627,742	7,82
628,201	7,8
628,661	7,7
629,12	7,72
629,579	7,79
630,038	7,76
630,497	7,65
630,956	7,65
631,415	7,63
631,874	7,67
632,332	7,7
632,791	7,56
633,249	7,47
633,708	7,47
634,166	7,54
634,624	7,33
635,082	7,4
635,54	7,33
635,998	7,32
636,455	7,27
636,913	7,15
637,37	7,19
637,828	7,16
638,285	7,06
638,742	6,97
639,199	6,99
639,656	6,86
640,113	6,71
640,57	6,62
641,027	6,72
641,483	6,53
641,94	6,41
642,396	6,33
642,852	6,41
643,309	6,3
643,765	6,14
644,221	6,13
644,676	6,14
645,132	5,95
645,588	5,97
646,043	5,85
646,499	5,72
646,954	5,75
647,409	5,55
647,864	5,59
648,319	5,48
648,774	5,38
649,229	5,43
649,684	5,35
650,139	5,21
650,593	5,25
651,047	5,27
651,502	5,17
651,956	5,08
652,41	5,2
652,864	5,21
653,318	5,03
653,772	5,03
654,225	4,97
654,679	5,03
655,133	5,04
655,586	4,92
656,039	4,84
656,492	4,83
656,946	4,78
657,399	4,72
657,851	4,77
658,304	4,67
658,757	4,72
659,209	4,62
659,662	4,59
660,114	4,52
660,567	4,43
661,019	4,35
661,471	4,34
661,923	4,34
662,375	4,3
662,826	4,33
663,278	4,19
663,73	4,21
664,181	4,18
664,632	4,25
665,084	4,14
665,535	4,15
665,986	4,11
666,437	4,13
666,888	4,2
667,338	4,1
667,789	4,18
668,24	4,11
668,69	4,13
669,14	4,19
669,591	4,11
670,041	4,21
670,491	4,21
670,941	4,26
671,391	4,28
671,84	4,31
672,29	4,28
672,74	4,4
673,189	4,41
673,638	4,4
674,088	4,5
674,537	4,51
674,986	4,53
675,435	4,62
675,883	4,66
676,332	4,8
676,781	4,75
677,229	4,86
677,678	4,82
678,126	4,96
678,574	5,04
679,022	5,18
679,47	5,12
679,918	5,23
680,366	5,3
680,814	5,36
681,261	5,43
681,709	5,51
682,156	5,61
682,604	5,72
683,051	5,74
683,498	5,78
683,945	5,95
684,392	5,93
684,839	5,98
685,286	6
685,732	6,16
686,179	6,14
686,625	6,17
687,071	6,38
687,518	6,4
687,964	6,58
688,41	6,69
688,856	6,73
689,301	7,02
689,747	7,1
690,193	7,4
690,638	7,48
691,084	7,78
691,529	8,09
691,974	8,34
692,419	8,62
692,864	9,01
693,309	9,33
693,754	9,64
694,199	10,05
694,643	10,46
695,088	10,91
695,532	11,26
695,977	11,73
696,421	12,23
696,865	12,77
697,309	13,24
697,753	13,7
698,197	14,17
698,64	14,82
699,084	15,11
699,527	15,72
699,971	16,24
700,414	16,9
700,857	17,26
701,3	17,75
701,743	18,51
702,186	18,74
702,629	19,53
703,072	19,76
703,515	20,34
703,957	20,98
704,399	21,47
704,842	21,76
705,284	22,33
705,726	22,8
706,168	23,38
706,61	23,72
707,052	24,59
707,494	24,86
707,935	25,2
708,377	25,78
708,818	26,03
709,26	26,52
709,701	27,01
710,142	27,55
710,583	27,87
711,024	28,69
711,465	28,95
711,905	29,37
712,346	29,68
712,787	30,2
713,227	30,45
713,667	30,89
714,108	31,49
714,548	32,08
714,988	32,38
715,428	32,57
715,868	33,05
716,307	33,51
716,747	33,88
717,186	34,18
717,626	34,63
718,065	34,91
718,504	35,15
718,944	35,64
719,383	36,04
719,822	36,43
720,261	36,98
720,699	37,18
721,138	37,6
721,576	37,82
722,015	38,09
722,453	38,44
722,892	38,8
723,33	38,73
723,768	39,33
724,206	39,59
724,644	40,07
725,081	40,2
725,519	40,41
725,957	40,56
726,394	40,84
726,832	41,41
727,269	41,26
727,706	41,83
728,143	41,94
728,58	42,09
729,017	42,17
729,454	42,39
729,89	42,2
730,327	42,75
730,764	43,07
731,2	43,18
731,636	43,23
732,072	43,3
732,509	43,77
732,945	43,67
733,38	43,95
733,816	43,94
734,252	44,12
734,688	44,34
735,123	44,28
735,559	44,52
735,994	44,77
736,429	44,66
736,864	44,75
737,299	44,95
737,734	44,84
738,169	45,01
738,604	45,36
739,038	45,3
739,473	45,46
739,907	45,61
740,342	45,58
740,776	45,49
741,21	45,73
741,644	45,92
742,078	45,46
742,512	46,04
742,946	45,48
743,379	45,93
743,813	45,93
744,246	45,93
744,68	45,76
745,113	45,65
745,546	46,08
745,979	46,12
746,412	46,01
746,845	46,03
747,278	45,85
747,711	46,14
748,143	46,08
748,576	46,13
749,008	46,27
749,441	46,04
749,873	45,78
750,305	45,98
750,737	45,81
751,169	45,87
751,601	46,3
752,032	45,93
752,464	45,95
752,896	46,06
753,327	45,85
753,758	46,39
754,19	45,99
754,621	46
755,052	45,86
755,483	45,94
755,914	45,89
756,344	46,1
756,775	45,79
757,206	45,92
757,636	45,75
758,066	45,88
758,497	45,88
758,927	46,03
759,357	45,91
759,787	45,96
760,217	45,58
760,647	45,79
761,076	45,9
761,506	45,97
761,935	46,09
762,365	45,68
762,794	45,45
763,223	45,73
763,653	45,76
764,082	45,49
764,51	45,59
764,939	45,27
765,368	45,5
765,797	45,6
766,225	45,51
766,654	45,65
767,082	45,88
767,51	45,52
767,938	45,31
768,367	45,07
768,795	45,25
769,222	45,71
769,65	45,15
770,078	45,16
770,505	45,43
770,933	45,56
771,36	45,12
771,788	45,17
772,215	45,25
772,642	45,51
773,069	45,32
773,496	45,27
773,923	45,26
774,349	45,06
774,776	44,93
775,203	44,79
775,629	45,11
776,055	45,1
776,482	45,02
776,908	45,11
777,334	44,92
777,76	45,18
778,186	45,01
778,611	45,25
779,037	45,18
779,463	45,07
779,888	45,15
780,314	45,11
780,739	44,98
781,164	44,81
781,589	45,11
782,014	45,11
782,439	44,97
782,864	45,18
783,289	44,9
783,713	44,7
784,138	45,08
784,562	44,88
784,987	45,05
785,411	44,78
785,835	44,81
786,259	44,71
786,683	45,06
787,107	45,03
787,531	44,81
787,954	45,11
788,378	44,7
788,802	44,78
789,225	44,74
789,648	45,02
790,071	44,93
790,495	45,23
790,918	44,46
791,34	45,04
791,763	44,99
792,186	44,82
792,609	44,95
793,031	44,7
793,454	44,75
793,876	44,84
794,298	44,65
794,721	44,69
795,143	44,73
795,565	44,47
795,986	44,96
796,408	45,07
796,83	44,82
797,252	44,73
797,673	44,71
798,094	44,82
798,516	44,83
798,937	44,69
799,358	44,71
799,779	44,77
800,2	44,62
800,621	44,51
801,042	45,06
801,462	44,98
801,883	44,78
802,303	44,57
802,724	44,51
803,144	44,73
803,564	44,56
803,984	44,77
804,404	44,45
804,824	44,58
805,244	44,75
805,664	44,6
806,084	44,73
806,503	44,6
806,923	44,43
807,342	44,65
807,761	44,35
808,18	44,4
808,599	44,57
809,018	44,66
809,437	44,39
809,856	44,49
810,275	44,61
810,693	44,94
811,112	44,54
811,53	44,86
811,949	44,64
812,367	44,28
812,785	44,54
813,203	44,7
813,621	44,52
814,039	44,7
814,457	44,72
814,874	44,63
815,292	44,79
815,709	44,64
816,127	44,23
816,544	44,85
816,961	44,58
817,378	44,73
817,795	44,67
818,212	44,6
818,629	44,58
819,046	44,69
819,462	44,58
819,879	44,56
820,295	44,41
820,712	44,65
821,128	44,65
821,544	44,49
821,96	44,49
822,376	44,3
822,792	44,62
823,208	44,36
823,624	44,55
824,039	44,47
824,455	44,64
824,87	44,84
825,286	45,03
825,701	44,4
826,116	44,54
826,531	44,7
826,946	44,55
827,361	44,7
827,776	44,8
828,19	44,57
828,605	44,41
829,02	44,7
829,434	44,43
829,848	44,46
830,263	44,4
830,677	44,69
831,091	44,8
831,505	44,22
831,919	44,75
832,332	44,65
832,746	44,67
833,16	44,27
833,573	44,56
833,987	44,51
834,4	44,46
834,813	44,72
835,226	44,67
835,639	44,23
836,052	44,58
836,465	44,5
836,878	44,49
837,29	44,59
837,703	44,7
838,116	44,38
838,528	44,27
838,94	44,37
839,352	44,27
839,765	44,32
840,177	44,55
840,589	44,31
841	44,45
841,412	44,14
841,824	44,63
842,235	44,58
842,647	44,45
843,058	44,51
843,47	44,51
843,881	44,3
844,292	44,4
844,703	44,37
845,114	44,42
845,525	44,6
845,935	44,64
846,346	44,12
846,757	44,44
847,167	44,45
847,577	44,59
847,988	44,49
848,398	44,33
848,808	44,23
849,218	44,8
849,628	44,43
850,038	44,37
850,448	44,58
850,857	44,52
851,267	44,56
851,676	44,66
852,086	44,41
852,495	44,53
852,904	44,61
853,313	44,3
853,722	44,05
854,131	44,55
854,54	44,43
854,949	44,42
855,357	44,3
855,766	44,42
856,174	44,22
856,583	44,38
856,991	44,36
857,399	44,35
857,807	44,25
858,215	44,53
858,623	44,37
859,031	44,47
859,439	44,4
859,846	44,31
860,254	44,66
860,661	44,56
861,069	44,35
861,476	44,43
861,883	44,46
862,29	44,22
862,697	44,33
863,104	44,33
863,511	44,28
863,918	44,39
864,325	44,11
864,731	44,51
865,138	44,55
865,544	44,56
865,95	44,35
866,357	44,52
866,763	44,36
867,169	44,5
867,575	44,51
867,98	43,99
868,386	44,57
868,792	44,38
869,197	44,49
869,603	44,31
870,008	44,51
870,414	44,35
870,819	44,71
871,224	44,37
871,629	44,34
872,034	44,11
872,439	44,41
872,844	44,28
873,248	44,38
873,653	44,16
874,057	44,54
874,462	44,31
874,866	44,31
875,27	44,43
875,674	44,32
876,078	44,46
876,482	44,42
876,886	44,3
877,29	44,44
877,694	44,4
878,097	44,71
878,501	44,26
878,904	44,19
879,308	44,51
879,711	44,55
880,114	44,48
880,517	44,59
880,92	44,58
881,323	44,46
881,726	44,53
882,128	44,4
882,531	44,35
882,934	44,46
883,336	44,28
883,738	44,17
884,141	44,26
884,543	44,54
884,945	44,47
885,347	44,44
885,749	44,55
886,151	44,29
886,552	44,28
886,954	44,27
887,355	44,82
887,757	44,41
888,158	44,19
888,56	44,7
888,961	44,59
889,362	44,48
889,763	44,23
890,164	45
890,565	44,38
890,965	44,41
891,366	44,12
891,767	44,31
892,167	44,28
892,567	44,36
892,968	44,5
893,368	44,43
893,768	44,5
894,168	44,2
894,568	44,42
894,968	44,42
895,368	44,43
895,767	44,46
896,167	44,62
896,566	44,55
896,966	44,33
897,365	44,36
897,764	44,4
898,164	44,48
898,563	44,39
898,962	44,39
899,361	44,22
899,759	44,32
900,158	44,38
900,557	44,4
900,955	44,62
901,354	44,62
901,752	44,49
902,15	44,73
902,548	44,43
902,947	44,58
903,345	44,56
903,742	44,32
904,14	44,57
904,538	44,24
904,936	44,57
905,333	44,42
905,731	44,65
906,128	44,39
906,525	44,62
906,923	44,63
907,32	43,94
907,717	44,62
908,114	44,28
908,511	44,24
908,907	44,19
909,304	44,69
909,701	44,63
910,097	44,45
910,494	44,12
910,89	44,53
911,286	44,59
911,682	44,43
912,078	44,49
912,474	44,43
912,87	44,47
913,266	44,48
913,662	43,87
914,058	44,28
914,453	44,58
914,849	44,06
915,244	44,26
915,639	44,37
916,034	44,25
916,43	44,74
916,825	44,43
917,22	44,31
917,614	44,75
918,009	44,37
918,404	44,58
918,798	44,53
919,193	44,36
919,587	44,18
919,982	44,07
920,376	44,66
920,77	44,39
921,164	44,75
921,558	44,3
921,952	44,36
922,346	44,2
922,74	44,55
923,133	44,94
923,527	44,24
923,92	44,23
924,314	44,47
924,707	44,56
925,1	44,24
925,493	44,4
925,886	44,38
926,279	44,68
926,672	44,53
927,065	44,46
927,457	43,9
927,85	44,3
928,243	44,08
928,635	44,54
929,027	44,41
929,42	44,52
929,812	44,09
930,204	44,9
930,596	44,21
930,988	44,28
931,379	44,11
931,771	44,27
932,163	44,53
932,554	43,81
932,946	44,05
933,337	44,22
933,729	44,33
934,12	43,95
934,511	44,42
934,902	44,33
935,293	44,27
935,684	44,28
936,075	44
936,465	44,08
936,856	43,79
937,246	43,97
937,637	43,96
938,027	43,47
938,417	44,17
938,808	43,85
939,198	44,13
939,588	44
939,978	44,19
940,368	43,85
940,757	44,32
941,147	44,08
941,537	43,3
941,926	43,75
942,315	44,42
942,705	43,58
943,094	43,75
943,483	44,1
943,872	44,21
944,261	43,57
944,65	43,57
945,039	44,19
945,428	43,93
945,816	43,92
946,205	44,03
946,593	44,74
946,982	44,09
947,37	43,93
947,758	43,35
948,146	43,98
948,534	44,01
948,922	44
949,31	43,4
949,698	43,45
950,086	44,09
950,473	43,43
950,861	43,46
951,248	43,59
951,636	43,16
952,023	43,58
952,41	42,85
952,797	43,51
953,184	43,23
953,571	43,32
953,958	43,67
954,345	42,46
954,731	42,65
955,118	43,24
955,505	42,9
955,891	43,09
956,277	43,1
956,664	43,06
957,05	42,97
957,436	43,33
957,822	42,68
958,208	43,28
958,594	42,3
958,979	42,6
959,365	43,08
959,751	42,68
960,136	42,96
960,522	43,02
960,907	42,69
961,292	42,74
961,677	42,96
962,062	42,7
962,447	42,7
962,832	42,9
963,217	42,83
963,602	42,84
963,986	42,94
964,371	42,49
964,756	42,87
965,14	42,68
965,524	42,98
965,908	42,3
966,293	42,99
966,677	42,92
967,061	42,76
967,445	42,3
967,828	42,83
968,212	43,15
968,596	42,84
968,979	42,8
969,363	42,79
969,746	42,66
970,129	42,92
970,513	42,88
970,896	42,81
971,279	42,73
971,662	42,52
972,045	43,22
972,428	42,75
972,81	43,13
973,193	43,04
973,575	42,68
973,958	42,77
974,34	43,07
974,723	42,84
975,105	42,43
975,487	43,01
975,869	42,32
976,251	42,9
976,633	42,82
977,015	42,7
977,396	42,98
977,778	43,47
978,16	42,67
978,541	42,89
978,922	42,83
979,304	43,31
979,685	42,85
980,066	42,96
980,447	43,3
980,828	42,56
981,209	43,09
981,59	43,29
981,97	42,94
982,351	42,96
982,732	43
983,112	42,93
983,493	42,83
983,873	42,97
984,253	43,12
984,633	42,83
985,013	43,14
985,393	43,44
985,773	42,71
986,153	42,85
986,533	43,11
986,912	42,94
987,292	43,11
987,671	42,79
988,051	43,16
988,43	42,77
988,809	42,72
989,188	43,74
989,567	43,29
989,946	43,21
990,325	42,88
990,704	43,36
991,083	42,98
991,461	43,41
991,84	43,14
992,218	43,46
992,597	43,02
992,975	43,64
993,353	43,26
993,732	43,43
994,11	43,38
994,488	42,64
994,866	42,78
995,243	43,64
995,621	43,26
995,999	42,86
996,376	43,42
996,754	43,42
997,131	43,59
997,509	43,18
997,886	42,96
998,263	43,14
998,64	43,03
999,017	43,37
999,394	43,23
999,771	42,86
1000,148	43,27
1000,524	43,96
1000,901	43,85
1001,277	43,2
1001,654	43,53
1002,03	43,35
1002,406	42,99
1002,783	43,58
1003,159	43,91
1003,535	43
1003,911	43,59
1004,286	43
1004,662	42,83
1005,038	43,73
1005,414	43,66
1005,789	43,57
1006,164	43,95
1006,54	42,87
1006,915	43,8
1007,29	43,25
1007,665	43,18
1008,04	43,14
1008,415	43,69
1008,79	44,34
1009,165	43,76
1009,54	43,87
1009,914	43,25
1010,289	43,7
1010,663	43,98
1011,038	43,74
1011,412	43,75
1011,786	43,48
1012,16	44,17
1012,535	43,07
1012,909	43,62
1013,282	43,55
1013,656	43
1014,03	43,91
1014,404	43,66
1014,777	43,9
1015,151	43,37
1015,524	43,31
1015,897	44,56
1016,271	43,74
1016,644	43,45
1017,017	43,33
1017,39	44,47
1017,763	43,89
1018,136	43,67
1018,508	44,57
1018,881	43,64
1019,254	44,48
1019,626	44,71
1019,999	43,98
1020,371	43,08
1020,743	43,58
1021,116	43,76
1021,488	43,88
1021,86	43,98
1022,232	44,03
1022,604	43,32
1022,975	44,11
1023,347	44,32
1023,719	43,18
1024,09	43,96
1024,462	43,23
1024,833	43,59
1025,204	43,8
1025,576	43,96
1025,947	43,91
1026,318	44,31
1026,689	44,67
1027,06	43,93
1027,431	43,33
1027,801	43,73
1028,172	44,04
1028,543	44,17
1028,913	44,56
1029,284	43,55
1029,654	43,82
1030,024	43,55
1030,394	44,6
1030,764	44,5
1031,135	44,07
1031,504	44,66
1031,874	44,52
1032,244	44,03
1032,614	43,8
1032,983	44,19
1033,353	43,8
1033,722	43,67
1034,092	44,3
1034,461	44,5
1034,83	43,21
1035,2	44,57
1035,569	45,07
1035,938	44,54
1036,307	44,24
1036,675	45,25
1037,044	44,5
1037,413	43,68
1037,781	43,65
1038,15	43,2
1038,518	44,49
1038,887	44,92
1039,255	44,03
1039,623	44,06
1039,991	44,34
1040,359	43,24
1040,727	43,7
1041,095	44,8
1041,463	44,53
1041,831	43,84
1042,198	44,04
1042,566	43,9
1042,933	44,37
1043,301	44,84
1043,668	44,58
1044,035	44,29
1044,402	44,77
1044,77	44,41
1045,137	44,78
1045,503	43,8
1045,87	45,02
1046,237	43,54
1046,604	43,95
1046,97	44,78
1047,337	45,05
1047,703	44,76
1048,07	45,05
1048,436	44,77
1048,802	44,48
1049,168	44,34
1049,534	44,11
1049,9	44,53
1050,266	45,55
1050,632	45,04
1050,998	45,26
1051,364	44,76
1051,729	44,54
1052,095	45,28
1052,46	44,24
1052,825	44,38
1053,191	43,74
1053,556	44,84
1053,921	44,01
1054,286	44,95
1054,651	44,06
1055,016	45,29
1055,381	44,2
1055,745	44,88
1056,11	45,51
1056,475	44,31
1056,839	44,66
1057,203	44,85
1057,568	44,21
1057,932	45,24
1058,296	44,15
1058,66	44,9
1059,024	45,12
1059,388	45,1
1059,752	44,05
1060,116	44,43
1060,48	45,33
1060,843	43,84
1061,207	45,03
1061,57	44,6
1061,934	44,08
1062,297	45,75
1062,66	46,15
1063,023	45,27
1063,386	44,49
1063,749	43,67
1064,112	44,17
1064,475	44,25
1064,838	45,05
1065,201	44,75
1065,563	44,45
1065,926	44,28
1066,288	44,94
1066,651	43,6
1067,013	43,96
1067,375	43,52
1067,737	44,78
1068,099	44,81
1068,461	44,63
1068,823	44,6
1069,185	45,16
1069,547	43,46
1069,909	45,01
1070,27	44,8
1070,632	44,35
1070,993	45,24
1071,355	44,61
1071,716	45,77
1072,077	46,93
1072,438	46,13
1072,799	45,88
1073,16	44,77
1073,521	44,35
1073,882	44,95
1074,243	45,52
1074,603	45,21
1074,964	44,13
1075,325	44,31
1075,685	45,12
1076,045	44,38
1076,406	44,76
1076,766	45,55
1077,126	44,74
1077,486	45,53
1077,846	44,74
1078,206	45,76
1078,566	44,33
1078,925	44,52
1079,285	43,87
1079,645	45,56
1080,004	43,51
1080,364	44,39
1080,723	45,36
1081,082	45,59
1081,442	44,31
1081,801	45,78
1082,16	44,88
1082,519	45
1082,878	45,05
1083,237	44,69
1083,595	45,52
1083,954	46,12
1084,313	45,43
1084,671	47,4
1085,03	44,98
1085,388	42,95
1085,746	43,97
1086,104	44,12
1086,463	46,49
1086,821	44,44
1087,179	45,81
1087,537	46,11
1087,894	43,9
1088,252	44,3
1088,61	43,93
1088,967	45,74
1089,325	44,69
1089,682	44,49
1090,04	45,56
1090,397	43,98
1090,754	45,28
1091,111	47,01
1091,469	43,91
1091,826	43,55
1092,182	45,25
1092,539	45,16
1092,896	45,48
1093,253	44,49
1093,609	45,12
1093,966	45,01
1094,322	45,35
1094,679	45,53
1095,035	44,88
1095,391	44,15
1095,748	45,95
1096,104	44,94
1096,46	44,15
1096,816	44,17
1097,171	45,75
1097,527	44,1
1097,883	43,88
1098,239	44,28
1098,594	44,49
1098,95	46,05
1099,305	46,95
1099,66	46,77
1100,016	44,33
1100,371	45,45
1100,726	43,46
1101,081	44,94
1101,436	45,03
1101,791	45
1102,146	42,63
1102,5	45,25
1102,855	45,74
1103,21	45,59
1103,564	45,75
1103,918	44,22
1104,273	44,82
1104,627	43,03
1104,981	45,07
1105,335	45,15
1105,69	45
1106,043	45,41
1106,397	45,34
1106,751	44,38
1107,105	45,93
1107,459	44,87
1107,812	44,43
1108,166	44,28
1108,519	44,3
1108,873	45,04
1109,226	44,3
1109,579	46,83
1109,932	44,4
1110,285	45,31
1110,638	42,82
1110,991	46,6
1111,344	46,85
1111,697	43,72
1112,05	46,84
1112,402	45,53
1112,755	45,44
1113,107	44,85
1113,46	44,07
1113,812	44,98
1114,164	44,72
1114,517	45,04
1114,869	64,1
1115,221	62,9
1115,573	58,49
1115,924	54,74
