Data from G_4__Relative__3__00151.txt Node

Date: Mon Jan 29 18:25:51 CET 2024
User: diatiterra
Spectrometer: HDX00911
Trigger mode: 0
Integration Time (sec): 6,000000E-3
Scans to average: 2
Nonlinearity correction enabled: false
Boxcar width: 0
Storing dark spectrum: false
XAxis mode: Wavelengths
Number of Pixels in Spectrum: 2068
>>>>>Begin Spectral Data<<<<<
194,468	86,27
195,025	43,36
195,581	51,06
196,138	39,23
196,694	45,4
197,251	45,33
197,807	37,2
198,363	39,64
198,919	39,86
199,474	40,71
200,03	40,81
200,586	36,05
201,141	43,07
201,696	40,14
202,251	42,8
202,806	39,47
203,361	37,19
203,916	45,21
204,471	42,25
205,025	37,86
205,58	40,14
206,134	43,7
206,688	34,42
207,242	44,9
207,796	34,92
208,35	44,77
208,904	37,97
209,457	37,55
210,011	45,45
210,564	43,4
211,117	41,2
211,67	36,97
212,223	39,04
212,776	45,69
213,329	35,74
213,881	42,5
214,434	43,1
214,986	46,13
215,538	38,83
216,09	39,34
216,642	49,26
217,194	45,36
217,746	43,77
218,297	42,28
218,849	41,12
219,4	46,85
219,951	49,45
220,502	37,98
221,053	38,56
221,604	45,97
222,155	45,27
222,705	43,48
223,256	42,81
223,806	46,26
224,356	46,01
224,906	46,3
225,456	36,55
226,006	40,94
226,556	45,62
227,106	38,11
227,655	40,77
228,204	47,7
228,754	43,79
229,303	48,14
229,852	44,77
230,401	38,35
230,949	57,2
231,498	48,13
232,047	43,1
232,595	43,62
233,143	46,21
233,691	39,6
234,239	48,88
234,787	40,21
235,335	40,48
235,883	45,88
236,43	45,19
236,978	50,55
237,525	49,63
238,072	44,65
238,619	37,33
239,166	43,1
239,713	40,15
240,26	45,32
240,806	42,91
241,353	42,4
241,899	45,31
242,445	48,25
242,991	51,92
243,537	47,19
244,083	51,64
244,629	36,49
245,174	48,13
245,72	47,49
246,265	41,7
246,81	45,99
247,355	41,18
247,9	38,41
248,445	46,9
248,99	46,71
249,534	45,25
250,079	46,64
250,623	36,27
251,168	42,95
251,712	44,68
252,256	47,18
252,8	52,43
253,343	43,31
253,887	42,18
254,43	52,79
254,974	48,6
255,517	50
256,06	39,38
256,603	36,98
257,146	45,45
257,689	34,81
258,232	39,85
258,774	42,07
259,317	39,19
259,859	42,8
260,401	48,48
260,943	44,03
261,485	43,62
262,027	38,62
262,569	43,23
263,11	46,21
263,652	40,81
264,193	33,93
264,734	44,44
265,275	46,59
265,816	39,93
266,357	39,21
266,898	39,25
267,438	28,63
267,979	45,45
268,519	32,49
269,059	42,91
269,6	37,54
270,14	43,56
270,68	38,7
271,219	39,3
271,759	42,16
272,298	32,73
272,838	35,27
273,377	40,37
273,916	38,99
274,455	41,38
274,994	41,73
275,533	37,54
276,072	40,23
276,61	44,71
277,149	32,97
277,687	38,43
278,225	42,47
278,763	48,19
279,301	42,64
279,839	39,49
280,377	38,69
280,914	33,7
281,452	42,68
281,989	44,37
282,526	46,59
283,064	39,58
283,601	46,59
284,137	44,16
284,674	43,77
285,211	31,29
285,747	44,41
286,284	34,04
286,82	36,88
287,356	37,8
287,892	43,51
288,428	35,59
288,964	40,79
289,5	38,78
290,035	37,05
290,571	44,4
291,106	41,09
291,641	40,23
292,176	39,85
292,711	46,9
293,246	33,21
293,781	32,71
294,315	38,24
294,85	43,43
295,384	50
295,918	43,9
296,453	39,22
296,987	42,07
297,52	39,38
298,054	38,97
298,588	40,16
299,121	38,1
299,655	40,35
300,188	38,02
300,721	40
301,254	40,93
301,787	41,06
302,32	46,21
302,853	39,02
303,385	44,32
303,918	35,09
304,45	45,17
304,982	40,64
305,514	48,34
306,046	42,81
306,578	40
307,11	35,69
307,641	41,45
308,173	41,26
308,704	41
309,236	40,45
309,767	40,42
310,298	34,49
310,829	44,11
311,359	42,35
311,89	42,35
312,421	43,84
312,951	42,91
313,481	38,55
314,012	49,45
314,542	46,58
315,072	40,36
315,601	43,06
316,131	29,93
316,661	47,92
317,19	41,28
317,72	43,96
318,249	38,51
318,778	45,25
319,307	46,96
319,836	53,69
320,365	46,58
320,893	37,23
321,422	40,3
321,95	37,04
322,479	43,6
323,007	36,96
323,535	44,53
324,063	49,63
324,591	46,33
325,118	35,66
325,646	43,08
326,173	47,86
326,701	51,64
327,228	42,17
327,755	49,46
328,282	36,23
328,809	38,52
329,336	46,37
329,862	41,54
330,389	34,13
330,915	40,78
331,441	41,02
331,968	40,55
332,494	32,11
333,02	36,86
333,545	35,38
334,071	39,67
334,597	41,89
335,122	35,45
335,648	47,99
336,173	43,23
336,698	38,7
337,223	40,96
337,748	31,58
338,272	39,27
338,797	39,48
339,322	36,54
339,846	35,16
340,37	43,59
340,894	43,15
341,419	39,6
341,942	37,58
342,466	41,98
342,99	36,92
343,514	31,17
344,037	36,72
344,56	39,18
345,084	38,8
345,607	38,3
346,13	38,46
346,653	34,28
347,175	42,9
347,698	30,36
348,221	33,43
348,743	40,52
349,265	32,74
349,787	36,86
350,309	33,88
350,831	36,42
351,353	36,24
351,875	31,18
352,397	41,05
352,918	35,88
353,439	37,67
353,961	33,24
354,482	33,15
355,003	29,49
355,524	31,38
356,044	26,39
356,565	34,16
357,086	29,77
357,606	28,67
358,126	32,36
358,646	29,85
359,167	31,7
359,687	26,18
360,206	27,95
360,726	24,48
361,246	31,57
361,765	30,04
362,285	33,41
362,804	28,22
363,323	27,06
363,842	27,62
364,361	24,68
364,88	29,54
365,398	31,79
365,917	35,73
366,435	26,82
366,954	30,26
367,472	28,57
367,99	32,03
368,508	30,86
369,026	27,52
369,544	28,18
370,061	28,47
370,579	26,83
371,096	25,91
371,613	29,17
372,131	30,81
372,648	30,14
373,165	30,33
373,681	27,32
374,198	25,57
374,715	29,51
375,231	23,37
375,747	26,12
376,264	22,84
376,78	27,75
377,296	26,11
377,812	25,37
378,327	25,19
378,843	28,06
379,359	22,9
379,874	23,22
380,389	25,58
380,905	26,13
381,42	25,85
381,935	25,07
382,449	24,02
382,964	27,53
383,479	25,03
383,993	23,2
384,508	23,89
385,022	22,64
385,536	21,25
386,05	19,98
386,564	22,88
387,078	19,79
387,592	21,88
388,105	21,53
388,619	20,85
389,132	21,29
389,645	22,25
390,158	19,16
390,671	22,48
391,184	19,88
391,697	18,99
392,21	20,31
392,722	18,26
393,235	20,13
393,747	18,31
394,259	18,2
394,771	17,49
395,283	17,04
395,795	17,16
396,307	16,42
396,818	18,31
397,33	17,1
397,841	17,53
398,353	17,08
398,864	18,27
399,375	16,45
399,886	15,41
400,397	16,19
400,907	14,96
401,418	14,63
401,928	15,11
402,439	14,71
402,949	14,53
403,459	15,54
403,969	13,92
404,479	13,43
404,989	12,17
405,498	12,3
406,008	10,69
406,517	11,76
407,027	12,01
407,536	10,14
408,045	11,3
408,554	9,63
409,063	9,31
409,572	10,35
410,08	9,42
410,589	9,17
411,097	8,35
411,606	9,57
412,114	8,86
412,622	8,47
413,13	7,73
413,638	7,56
414,145	7,75
414,653	7,42
415,16	7,6
415,668	6,73
416,175	7,35
416,682	7,2
417,189	6,49
417,696	6,68
418,203	5,81
418,71	6,57
419,216	6,31
419,723	6,36
420,229	5,9
420,735	6,14
421,242	6,21
421,748	6,23
422,254	6,09
422,759	5,24
423,265	5,86
423,771	5,47
424,276	5,79
424,781	5,9
425,287	5,12
425,792	5,36
426,297	5,91
426,802	5,04
427,306	5,1
427,811	5,55
428,316	5,72
428,82	5,28
429,324	5,44
429,829	5,16
430,333	4,85
430,837	4,8
431,34	5,06
431,844	4,86
432,348	4,61
432,851	5,12
433,355	4,61
433,858	4,57
434,361	4,96
434,864	5,04
435,367	4,96
435,87	4,5
436,373	5,03
436,876	4,44
437,378	4,52
437,88	4,8
438,383	4,87
438,885	4,51
439,387	4,64
439,889	4,47
440,391	4,9
440,892	4,25
441,394	4,55
441,896	4,78
442,397	4,62
442,898	4,8
443,399	4,88
443,9	5,19
444,401	4,59
444,902	4,82
445,403	4,77
445,903	4,96
446,404	4,63
446,904	4,74
447,405	5,05
447,905	4,95
448,405	5,05
448,905	5,04
449,404	4,8
449,904	5,07
450,404	4,84
450,903	4,95
451,403	4,9
451,902	5,03
452,401	5,23
452,9	4,94
453,399	5,22
453,898	5,14
454,396	5,13
454,895	5,11
455,393	5,02
455,892	5,06
456,39	5,1
456,888	5,09
457,386	5,23
457,884	5
458,382	4,93
458,879	5,16
459,377	5,07
459,874	5,25
460,372	4,93
460,869	5,16
461,366	5,16
461,863	5,39
462,36	5,28
462,857	5,31
463,353	4,97
463,85	5,28
464,346	5,24
464,843	5,19
465,339	5,22
465,835	5,12
466,331	5,18
466,827	5,18
467,323	5
467,818	5,3
468,314	5,5
468,809	4,89
469,305	5,23
469,8	5,33
470,295	5,18
470,79	5,17
471,285	5,15
471,78	5,07
472,274	5,14
472,769	5,21
473,263	5,06
473,758	5
474,252	5,04
474,746	5,35
475,24	5,15
475,734	5,26
476,228	5,41
476,721	5,21
477,215	5,03
477,708	5,09
478,202	5,16
478,695	5,25
479,188	5,12
479,681	5,22
480,174	5,3
480,667	5,3
481,159	5,1
481,652	5,42
482,144	5,14
482,637	5,47
483,129	5,57
483,621	5,26
484,113	5,49
484,605	5,22
485,097	5,24
485,588	5,52
486,08	5,51
486,571	5,45
487,063	5,58
487,554	5,46
488,045	5,6
488,536	5,41
489,027	5,48
489,518	5,54
490,008	5,56
490,499	5,68
490,989	5,62
491,48	5,89
491,97	5,79
492,46	5,61
492,95	5,75
493,44	6,26
493,93	5,72
494,419	6,06
494,909	6,11
495,398	5,86
495,888	6,27
496,377	6,17
496,866	6,32
497,355	6,36
497,844	6,41
498,333	6,56
498,821	6,59
499,31	7,08
499,798	6,84
500,287	7
500,775	7,15
501,263	7,23
501,751	7,55
502,239	7,47
502,727	7,62
503,215	7,65
503,702	7,91
504,19	7,98
504,677	8,21
505,164	8,16
505,651	8,63
506,139	8,8
506,625	8,82
507,112	9,25
507,599	9,12
508,086	9,18
508,572	9,55
509,058	9,63
509,545	9,87
510,031	10,24
510,517	10,7
511,003	10,59
511,489	10,73
511,974	11,2
512,46	11,27
512,946	11,57
513,431	11,85
513,916	12,1
514,401	12,4
514,887	12,47
515,371	12,83
515,856	13,09
516,341	13,7
516,826	13,76
517,31	13,76
517,795	14,33
518,279	14,38
518,763	14,81
519,247	15,14
519,731	15,64
520,215	15,82
520,699	16,16
521,182	16,28
521,666	16,61
522,149	16,86
522,633	17,19
523,116	17,45
523,599	17,66
524,082	17,83
524,565	18,08
525,048	18,29
525,53	18,59
526,013	19,01
526,495	19,45
526,978	19,51
527,46	20,01
527,942	20,07
528,424	20,08
528,906	20,21
529,388	20,09
529,87	20,6
530,351	20,91
530,833	21,04
531,314	21,21
531,795	21,32
532,277	21,31
532,758	21,4
533,238	21,62
533,719	21,66
534,2	22,1
534,681	22,04
535,161	22,29
535,642	22,03
536,122	21,94
536,602	22,6
537,082	22,26
537,562	22,55
538,042	22,48
538,522	23,04
539,001	22,64
539,481	22,71
539,96	22,56
540,44	22,75
540,919	22,93
541,398	23,04
541,877	23,11
542,356	22,41
542,835	22,97
543,313	22,89
543,792	23,29
544,27	23,11
544,749	23,24
545,227	22,98
545,705	23,27
546,183	23,27
546,661	23,33
547,139	23,33
547,616	23,29
548,094	23,43
548,571	23,55
549,049	23,64
549,526	23,54
550,003	23,47
550,48	23,34
550,957	23,53
551,434	23,41
551,911	23,6
552,387	23,59
552,864	23,95
553,34	23,8
553,817	23,78
554,293	23,59
554,769	23,57
555,245	23,74
555,721	23,61
556,197	23,51
556,672	23,66
557,148	23,5
557,623	23,33
558,099	23,27
558,574	23,43
559,049	23,3
559,524	23,24
559,999	23,07
560,474	22,9
560,948	23,25
561,423	23,01
561,897	23,07
562,372	23,03
562,846	22,9
563,32	22,79
563,794	22,67
564,268	22,58
564,742	22,28
565,216	22,36
565,69	22,1
566,163	22,29
566,636	22,09
567,11	21,98
567,583	21,5
568,056	21,64
568,529	21,5
569,002	21,36
569,475	21,27
569,947	21,06
570,42	20,75
570,892	20,71
571,365	20,83
571,837	20,56
572,309	20,15
572,781	20,01
573,253	19,89
573,725	19,84
574,197	19,54
574,668	19,53
575,14	19,73
575,611	19,34
576,082	19,45
576,554	18,99
577,025	19,04
577,496	18,46
577,967	18,58
578,437	18,4
578,908	18,47
579,379	18,23
579,849	18,05
580,319	17,99
580,79	18,02
581,26	17,79
581,73	17,89
582,2	17,53
582,669	17,68
583,139	17,5
583,609	17,3
584,078	17,17
584,548	17,01
585,017	16,88
585,486	17,03
585,955	16,76
586,424	16,78
586,893	16,75
587,362	16,46
587,83	16,48
588,299	16,32
588,767	16,41
589,236	16,25
589,704	16,3
590,172	16,29
590,64	16,09
591,108	16
591,576	16,05
592,043	15,81
592,511	15,93
592,978	15,83
593,446	15,79
593,913	15,77
594,38	15,78
594,847	15,61
595,314	15,68
595,781	15,62
596,248	15,68
596,715	15,5
597,181	15,44
597,647	15,31
598,114	15,17
598,58	15,26
599,046	15,45
599,512	15,51
599,978	15,38
600,444	15,29
600,91	15,1
601,375	15,09
601,841	15,2
602,306	15,16
602,771	15,23
603,236	15,03
603,702	15,05
604,167	14,87
604,631	14,86
605,096	14,84
605,561	14,67
606,025	14,64
606,49	14,56
606,954	14,36
607,418	14,55
607,882	14,34
608,347	14,34
608,81	14,29
609,274	14,25
609,738	14,02
610,202	14,09
610,665	14
611,128	13,8
611,592	13,71
612,055	13,65
612,518	13,48
612,981	13,58
613,444	13,37
613,907	13,21
614,369	13,28
614,832	13,23
615,294	13,07
615,757	12,87
616,219	13,12
616,681	12,7
617,143	12,79
617,605	12,62
618,067	12,59
618,529	12,56
618,99	12,41
619,452	12,52
619,913	12,22
620,375	12,43
620,836	12,2
621,297	12,07
621,758	12,14
622,219	12,08
622,68	12,07
623,14	11,87
623,601	11,93
624,061	11,7
624,522	11,86
624,982	12,06
625,442	11,69
625,902	11,67
626,362	11,74
626,822	11,93
627,282	11,65
627,742	11,68
628,201	11,81
628,661	11,62
629,12	11,54
629,579	11,66
630,038	11,63
630,497	11,59
630,956	11,56
631,415	11,66
631,874	11,51
632,332	11,36
632,791	11,38
633,249	11,27
633,708	11,33
634,166	11,35
634,624	11,3
635,082	11,21
635,54	11,19
635,998	10,97
636,455	11,09
636,913	10,87
637,37	10,65
637,828	10,72
638,285	10,6
638,742	10,47
639,199	10,53
639,656	10,44
640,113	10,11
640,57	10,18
641,027	10,05
641,483	9,87
641,94	9,74
642,396	9,59
642,852	9,54
643,309	9,5
643,765	9,33
644,221	9,14
644,676	9,21
645,132	8,98
645,588	8,88
646,043	8,73
646,499	8,58
646,954	8,59
647,409	8,42
647,864	8,29
648,319	8,25
648,774	8,06
649,229	8,03
649,684	8,04
650,139	7,8
650,593	7,88
651,047	7,78
651,502	7,79
651,956	7,7
652,41	7,64
652,864	7,59
653,318	7,68
653,772	7,48
654,225	7,49
654,679	7,36
655,133	7,45
655,586	7,31
656,039	7,15
656,492	7,22
656,946	7,16
657,399	7,06
657,851	7,1
658,304	6,97
658,757	6,88
659,209	6,72
659,662	6,81
660,114	6,55
660,567	6,48
661,019	6,43
661,471	6,35
661,923	6,18
662,375	6,24
662,826	6,18
663,278	6,11
663,73	6,22
664,181	5,96
664,632	5,9
665,084	5,92
665,535	5,78
665,986	5,76
666,437	5,75
666,888	5,72
667,338	5,69
667,789	5,75
668,24	5,62
668,69	5,56
669,14	5,64
669,591	5,55
670,041	5,61
670,491	5,54
670,941	5,67
671,391	5,56
671,84	5,64
672,29	5,68
672,74	5,76
673,189	5,74
673,638	5,86
674,088	5,91
674,537	6,01
674,986	5,95
675,435	6,03
675,883	6,17
676,332	6,2
676,781	6,09
677,229	6,31
677,678	6,31
678,126	6,5
678,574	6,55
679,022	6,66
679,47	6,68
679,918	6,89
680,366	6,96
680,814	7,02
681,261	7,23
681,709	7,29
682,156	7,34
682,604	7,54
683,051	7,62
683,498	7,85
683,945	7,86
684,392	8,02
684,839	8,23
685,286	8,39
685,732	8,39
686,179	8,75
686,625	8,79
687,071	8,95
687,518	9,19
687,964	9,44
688,41	9,75
688,856	9,87
689,301	10,21
689,747	10,55
690,193	10,81
690,638	11,21
691,084	11,58
691,529	11,83
691,974	12,47
692,419	12,79
692,864	13,25
693,309	13,68
693,754	14,12
694,199	14,64
694,643	15,19
695,088	15,56
695,532	16,21
695,977	16,63
696,421	17,18
696,865	17,54
697,309	18,07
697,753	18,52
698,197	19,17
698,64	19,66
699,084	20,08
699,527	20,55
699,971	21,2
700,414	21,61
700,857	22,06
701,3	22,46
701,743	22,91
702,186	23,34
702,629	23,88
703,072	24,38
703,515	24,64
703,957	25,16
704,399	25,56
704,842	25,88
705,284	26,24
705,726	26,67
706,168	26,89
706,61	27,27
707,052	27,88
707,494	28,21
707,935	28,43
708,377	28,62
708,818	29,34
709,26	29,41
709,701	29,76
710,142	30,09
710,583	30,34
711,024	30,71
711,465	31,01
711,905	31,33
712,346	31,67
712,787	31,81
713,227	32,2
713,667	32,48
714,108	32,64
714,548	33,23
714,988	33,37
715,428	33,28
715,868	33,49
716,307	33,87
716,747	34,33
717,186	34,53
717,626	34,85
718,065	34,75
718,504	35,28
718,944	35,28
719,383	35,57
719,822	36,14
720,261	36,29
720,699	36,42
721,138	36,41
721,576	36,71
722,015	36,84
722,453	37,26
722,892	37,31
723,33	37,43
723,768	37,55
724,206	37,82
724,644	37,8
725,081	38,15
725,519	38,18
725,957	38,34
726,394	38,63
726,832	38,66
727,269	38,74
727,706	39,15
728,143	39
728,58	39,24
729,017	39,27
729,454	39,35
729,89	39,15
730,327	39,63
730,764	39,46
731,2	39,71
731,636	39,58
732,072	39,52
732,509	39,93
732,945	40,12
733,38	40
733,816	39,93
734,252	40,28
734,688	40,14
735,123	40,44
735,559	40,34
735,994	40,74
736,429	40,55
736,864	40,42
737,299	40,48
737,734	40,54
738,169	40,58
738,604	40,59
739,038	40,57
739,473	41,22
739,907	40,77
740,342	40,74
740,776	41
741,21	40,8
741,644	40,86
742,078	40,84
742,512	41,09
742,946	40,94
743,379	41,04
743,813	40,88
744,246	40,75
744,68	40,86
745,113	40,75
745,546	40,95
745,979	40,65
746,412	40,82
746,845	40,81
747,278	40,79
747,711	40,94
748,143	40,85
748,576	40,89
749,008	40,87
749,441	40,84
749,873	40,74
750,305	40,72
750,737	40,49
751,169	40,58
751,601	40,77
752,032	40,53
752,464	40,54
752,896	40,93
753,327	40,78
753,758	40,66
754,19	40,63
754,621	40,58
755,052	40,07
755,483	40,37
755,914	40,52
756,344	40,31
756,775	40,4
757,206	40,43
757,636	40,48
758,066	40,39
758,497	40,38
758,927	40,4
759,357	40,48
759,787	40,21
760,217	40,03
760,647	40,34
761,076	40,38
761,506	40,32
761,935	40,47
762,365	40,07
762,794	40,08
763,223	40,13
763,653	40,15
764,082	39,95
764,51	39,93
764,939	39,67
765,368	39,74
765,797	39,7
766,225	39,93
766,654	39,97
767,082	40,11
767,51	39,83
767,938	39,9
768,367	39,6
768,795	39,6
769,222	39,92
769,65	39,69
770,078	39,77
770,505	39,64
770,933	39,64
771,36	39,5
771,788	39,61
772,215	39,77
772,642	39,71
773,069	39,65
773,496	39,55
773,923	39,69
774,349	39,74
774,776	39,53
775,203	39,58
775,629	39,51
776,055	39,41
776,482	39,69
776,908	39,43
777,334	39,26
777,76	39,42
778,186	39,33
778,611	39,31
779,037	39,54
779,463	39,26
779,888	39,49
780,314	39,05
780,739	39,34
781,164	39,09
781,589	39,63
782,014	39,4
782,439	39,44
782,864	39,09
783,289	39,42
783,713	39,18
784,138	39,31
784,562	39,11
784,987	39,18
785,411	39,51
785,835	38,91
786,259	38,99
786,683	39,22
787,107	39,39
787,531	39,11
787,954	39,23
788,378	39,13
788,802	39,04
789,225	39,37
789,648	39,23
790,071	39,29
790,495	39,34
790,918	39,11
791,34	39,12
791,763	39,26
792,186	39,16
792,609	38,96
793,031	39,2
793,454	39,13
793,876	39,19
794,298	38,88
794,721	39,01
795,143	39,1
795,565	38,92
795,986	39,19
796,408	39,26
796,83	39,17
797,252	38,96
797,673	39,15
798,094	39,23
798,516	39,08
798,937	38,6
799,358	39,09
799,779	39,05
800,2	39,03
800,621	38,96
801,042	39,17
801,462	39,34
801,883	39,02
802,303	38,75
802,724	38,81
803,144	39,14
803,564	38,94
803,984	39,06
804,404	38,69
804,824	38,9
805,244	38,94
805,664	39,06
806,084	38,98
806,503	38,95
806,923	38,88
807,342	38,82
807,761	38,59
808,18	39,01
808,599	38,79
809,018	38,9
809,437	38,78
809,856	38,72
810,275	38,93
810,693	39,05
811,112	38,9
811,53	39,1
811,949	38,9
812,367	38,77
812,785	39,05
813,203	38,72
813,621	38,91
814,039	38,9
814,457	39,12
814,874	39
815,292	38,9
815,709	38,76
816,127	38,55
816,544	39,02
816,961	38,96
817,378	38,84
817,795	38,93
818,212	38,96
818,629	38,82
819,046	39,26
819,462	39,25
819,879	38,84
820,295	38,53
820,712	39,02
821,128	39,1
821,544	38,81
821,96	38,68
822,376	38,8
822,792	38,88
823,208	38,79
823,624	38,86
824,039	38,82
824,455	38,93
824,87	39,15
825,286	38,81
825,701	38,56
826,116	38,65
826,531	38,92
826,946	38,88
827,361	38,84
827,776	38,81
828,19	38,57
828,605	38,86
829,02	38,51
829,434	38,56
829,848	38,8
830,263	38,62
830,677	38,53
831,091	38,89
831,505	38,8
831,919	39,09
832,332	38,48
832,746	38,83
833,16	38,4
833,573	38,55
833,987	38,62
834,4	38,5
834,813	38,93
835,226	38,76
835,639	38,45
836,052	38,84
836,465	38,7
836,878	38,87
837,29	38,61
837,703	38,66
838,116	38,62
838,528	38,47
838,94	38,54
839,352	38,88
839,765	38,58
840,177	38,72
840,589	38,42
841	38,67
841,412	38,62
841,824	38,62
842,235	38,69
842,647	38,49
843,058	38,76
843,47	38,75
843,881	38,48
844,292	38,76
844,703	38,69
845,114	38,43
845,525	38,57
845,935	38,54
846,346	38,65
846,757	38,61
847,167	38,93
847,577	38,57
847,988	38,61
848,398	38,53
848,808	38,57
849,218	39,08
849,628	38,46
850,038	38,44
850,448	38,75
850,857	38,55
851,267	38,62
851,676	38,86
852,086	38,41
852,495	38,54
852,904	38,53
853,313	38,55
853,722	38,44
854,131	38,21
854,54	38,52
854,949	38,64
855,357	38,57
855,766	38,63
856,174	38,43
856,583	38,69
856,991	38,54
857,399	38,37
857,807	38,63
858,215	38,65
858,623	38,26
859,031	38,36
859,439	38,33
859,846	38,64
860,254	38,48
860,661	38,7
861,069	38,56
861,476	38,37
861,883	38,72
862,29	38,48
862,697	38,49
863,104	38,4
863,511	38,34
863,918	38,29
864,325	38,34
864,731	38,55
865,138	38,46
865,544	38,37
865,95	38,38
866,357	38,88
866,763	38,36
867,169	38,47
867,575	38,66
867,98	38,6
868,386	38,55
868,792	38,56
869,197	38,74
869,603	38,53
870,008	38,56
870,414	38,38
870,819	38,51
871,224	38,7
871,629	38,26
872,034	38,47
872,439	38,48
872,844	38,55
873,248	38,34
873,653	38,3
874,057	38,51
874,462	38,21
874,866	38,46
875,27	38,8
875,674	38,59
876,078	38,27
876,482	38,47
876,886	38,3
877,29	38,56
877,694	38,43
878,097	38,3
878,501	38,68
878,904	38,66
879,308	38,68
879,711	38,46
880,114	38,38
880,517	38,43
880,92	38,66
881,323	38,5
881,726	39,06
882,128	38,49
882,531	38,71
882,934	38,62
883,336	38,63
883,738	38,41
884,141	38,62
884,543	38,33
884,945	38,47
885,347	38,27
885,749	38,45
886,151	38,28
886,552	38,63
886,954	38,57
887,355	38,95
887,757	38,53
888,158	38,4
888,56	38,64
888,961	38,5
889,362	38,49
889,763	38,55
890,164	38,64
890,565	38,52
890,965	38,72
891,366	38,32
891,767	38,66
892,167	38,67
892,567	38,54
892,968	38,67
893,368	38,47
893,768	38,37
894,168	38,37
894,568	38,46
894,968	38,11
895,368	38,36
895,767	38,53
896,167	38,19
896,566	38,45
896,966	38,62
897,365	38,36
897,764	38,64
898,164	38,38
898,563	38,53
898,962	38,53
899,361	38,77
899,759	38,49
900,158	38,79
900,557	38,4
900,955	38,54
901,354	38,51
901,752	38,31
902,15	38,92
902,548	38,49
902,947	38,47
903,345	38,68
903,742	38,57
904,14	38,51
904,538	38,45
904,936	38,61
905,333	38,46
905,731	38,73
906,128	38,48
906,525	38,42
906,923	38,57
907,32	38,59
907,717	38,41
908,114	38,44
908,511	38,43
908,907	38,5
909,304	38,69
909,701	38,46
910,097	38,51
910,494	38,09
910,89	38,56
911,286	38,69
911,682	38,36
912,078	38,39
912,474	38,5
912,87	38,48
913,266	38,6
913,662	38,24
914,058	38,26
914,453	38,54
914,849	38,45
915,244	38,58
915,639	38,39
916,034	38,67
916,43	38,55
916,825	38,11
917,22	38,69
917,614	38,59
918,009	38,55
918,404	38,27
918,798	38,38
919,193	38,55
919,587	38,41
919,982	38,03
920,376	38,32
920,77	38,35
921,164	39,07
921,558	38,19
921,952	38,31
922,346	38,16
922,74	38,55
923,133	38,29
923,527	38,28
923,92	38,28
924,314	38,66
924,707	38,28
925,1	38,13
925,493	38,62
925,886	38,14
926,279	38,42
926,672	38,36
927,065	38,4
927,457	38,4
927,85	38,29
928,243	38,22
928,635	38,18
929,027	38,16
929,42	38,28
929,812	38,27
930,204	38,4
930,596	38,18
930,988	38,28
931,379	38,29
931,771	38,27
932,163	37,95
932,554	37,97
932,946	38,09
933,337	38,33
933,729	38,36
934,12	38,21
934,511	38,39
934,902	38,28
935,293	38,13
935,684	38,11
936,075	38,13
936,465	37,73
936,856	37,51
937,246	37,88
937,637	38,04
938,027	38,2
938,417	37,79
938,808	38,33
939,198	38,46
939,588	38,33
939,978	38,3
940,368	37,75
940,757	37,97
941,147	37,84
941,537	37,68
941,926	38,07
942,315	37,8
942,705	37,75
943,094	38
943,483	37,66
943,872	37,86
944,261	38,06
944,65	37,26
945,039	37,91
945,428	38,14
945,816	37,31
946,205	37,96
946,593	38,07
946,982	37,33
947,37	37,41
947,758	38,01
948,146	37,4
948,534	37,69
948,922	37,85
949,31	37,66
949,698	37,72
950,086	37,27
950,473	37,36
950,861	37,57
951,248	37,18
951,636	37,63
952,023	37,17
952,41	37,25
952,797	36,79
953,184	37,51
953,571	36,92
953,958	37,28
954,345	36,8
954,731	37,13
955,118	36,94
955,505	37,04
955,891	37,05
956,277	36,92
956,664	37,04
957,05	37,14
957,436	37,25
957,822	36,77
958,208	36,75
958,594	36,2
958,979	36,78
959,365	36,91
959,751	36,67
960,136	37,18
960,522	36,7
960,907	36,86
961,292	36,72
961,677	36,81
962,062	36,67
962,447	36,24
962,832	36,62
963,217	36,88
963,602	36,66
963,986	36,65
964,371	36,36
964,756	36,26
965,14	36,38
965,524	36,63
965,908	36,36
966,293	36,65
966,677	36,75
967,061	36,79
967,445	36,46
967,828	35,9
968,212	37,02
968,596	36,74
968,979	36,11
969,363	36,79
969,746	36,49
970,129	36,75
970,513	36,71
970,896	36,75
971,279	36,88
971,662	36,37
972,045	36,82
972,428	36,77
972,81	36,46
973,193	36,57
973,575	36,54
973,958	36,68
974,34	36,42
974,723	36,57
975,105	36,88
975,487	36,48
975,869	36,15
976,251	36,41
976,633	36,87
977,015	36,59
977,396	36,37
977,778	37,43
978,16	36,85
978,541	36,46
978,922	36,84
979,304	36,77
979,685	36,61
980,066	36,88
980,447	36,45
980,828	36,91
981,209	36,73
981,59	36,35
981,97	36,78
982,351	36,62
982,732	36,8
983,112	37,33
983,493	36,55
983,873	36,09
984,253	36,51
984,633	36,16
985,013	36,81
985,393	36,89
985,773	36,49
986,153	36,91
986,533	36,13
986,912	36,56
987,292	36,57
987,671	36,89
988,051	37,04
988,43	36,51
988,809	36,78
989,188	36,84
989,567	37,54
989,946	36,72
990,325	36,65
990,704	36,28
991,083	37,13
991,461	36,9
991,84	36,84
992,218	37,22
992,597	36,82
992,975	37,39
993,353	36,57
993,732	36,96
994,11	37,04
994,488	36,45
994,866	37,2
995,243	36,69
995,621	36,57
995,999	36,58
996,376	37,23
996,754	36,8
997,131	37,14
997,509	36,6
997,886	37,27
998,263	37,17
998,64	37,48
999,017	36,63
999,394	37,06
999,771	37,05
1000,148	37,22
1000,524	37,09
1000,901	37,1
1001,277	37,1
1001,654	37,21
1002,03	37,09
1002,406	36,75
1002,783	36,93
1003,159	37,53
1003,535	37,02
1003,911	37,44
1004,286	36,54
1004,662	37,5
1005,038	37,27
1005,414	36,84
1005,789	37,37
1006,164	37,34
1006,54	37,26
1006,915	37,65
1007,29	37,34
1007,665	36,97
1008,04	37,11
1008,415	37,16
1008,79	37,71
1009,165	37,19
1009,54	37,12
1009,914	37,25
1010,289	37
1010,663	37,21
1011,038	37,14
1011,412	37,11
1011,786	36,61
1012,16	37,88
1012,535	37,71
1012,909	37,23
1013,282	37,15
1013,656	37,33
1014,03	37,91
1014,404	37,12
1014,777	37,9
1015,151	37,89
1015,524	37,86
1015,897	38,28
1016,271	37,66
1016,644	37,22
1017,017	37,27
1017,39	37,85
1017,763	37,61
1018,136	37,57
1018,508	37,88
1018,881	37,37
1019,254	37,9
1019,626	37,86
1019,999	37,7
1020,371	37,92
1020,743	37,64
1021,116	37,62
1021,488	37,11
1021,86	37,85
1022,232	37,7
1022,604	37,78
1022,975	37,78
1023,347	37,85
1023,719	37,65
1024,09	37,94
1024,462	37,56
1024,833	37,69
1025,204	37,68
1025,576	38,49
1025,947	37,92
1026,318	38,22
1026,689	37,61
1027,06	37,55
1027,431	37,83
1027,801	37,7
1028,172	37,87
1028,543	37,42
1028,913	37,55
1029,284	38,04
1029,654	38,04
1030,024	37,56
1030,394	38,05
1030,764	38,21
1031,135	37,85
1031,504	37,94
1031,874	37,38
1032,244	38,3
1032,614	38,17
1032,983	37,7
1033,353	37,75
1033,722	37,44
1034,092	38,02
1034,461	37,97
1034,83	37,65
1035,2	38,28
1035,569	38,52
1035,938	37,88
1036,307	38,46
1036,675	38,3
1037,044	38,13
1037,413	37,56
1037,781	38,25
1038,15	37,91
1038,518	38,65
1038,887	38,11
1039,255	38,23
1039,623	37,88
1039,991	38,28
1040,359	37,56
1040,727	37,79
1041,095	38,1
1041,463	38,1
1041,831	38,35
1042,198	37,75
1042,566	37,91
1042,933	38,62
1043,301	38,49
1043,668	37,66
1044,035	38,07
1044,402	38,56
1044,77	38,17
1045,137	39,11
1045,503	38,35
1045,87	38,66
1046,237	38,58
1046,604	37,88
1046,97	38,65
1047,337	39,34
1047,703	37,87
1048,07	38,4
1048,436	38,44
1048,802	38,31
1049,168	38,29
1049,534	38,97
1049,9	38,72
1050,266	39,28
1050,632	37,61
1050,998	38,15
1051,364	38,67
1051,729	38,74
1052,095	37,85
1052,46	38,29
1052,825	37,95
1053,191	38,87
1053,556	38,82
1053,921	37,98
1054,286	38,55
1054,651	38,97
1055,016	39,06
1055,381	39,02
1055,745	38,47
1056,11	38,47
1056,475	37,83
1056,839	38,52
1057,203	38,92
1057,568	38,41
1057,932	38,45
1058,296	38,31
1058,66	37,89
1059,024	39,11
1059,388	38,25
1059,752	38,82
1060,116	39,17
1060,48	38,84
1060,843	39,04
1061,207	38,99
1061,57	38,88
1061,934	38,62
1062,297	38,77
1062,66	39,81
1063,023	38,5
1063,386	37,99
1063,749	38,55
1064,112	38,09
1064,475	37,98
1064,838	38,78
1065,201	37,99
1065,563	39,09
1065,926	38,7
1066,288	38,66
1066,651	38,53
1067,013	38,34
1067,375	38,68
1067,737	37,71
1068,099	38,78
1068,461	38,02
1068,823	38,27
1069,185	38,81
1069,547	38,65
1069,909	38,07
1070,27	39,33
1070,632	38,29
1070,993	38,19
1071,355	37,71
1071,716	38,64
1072,077	38,56
1072,438	39,39
1072,799	38,91
1073,16	39,24
1073,521	38,72
1073,882	39,4
1074,243	38,35
1074,603	38,6
1074,964	37,79
1075,325	37,93
1075,685	39,89
1076,045	38,02
1076,406	38,66
1076,766	39,54
1077,126	39,46
1077,486	38,69
1077,846	38,2
1078,206	38,07
1078,566	38,96
1078,925	38,68
1079,285	39,65
1079,645	39,58
1080,004	38,06
1080,364	38,45
1080,723	38,78
1081,082	39,97
1081,442	37,96
1081,801	40,03
1082,16	39,46
1082,519	39,48
1082,878	38,23
1083,237	38,73
1083,595	38,88
1083,954	39,63
1084,313	38,47
1084,671	38,96
1085,03	38,84
1085,388	38,43
1085,746	39,06
1086,104	38,1
1086,463	39,31
1086,821	38,55
1087,179	40,16
1087,537	41,34
1087,894	38,14
1088,252	37,24
1088,61	38,56
1088,967	38,72
1089,325	39,77
1089,682	38,31
1090,04	38,8
1090,397	37,4
1090,754	38,11
1091,111	39,64
1091,469	37,47
1091,826	39
1092,182	37,99
1092,539	38,77
1092,896	38,94
1093,253	37,65
1093,609	40,73
1093,966	37,93
1094,322	38,59
1094,679	38,34
1095,035	38,09
1095,391	38,75
1095,748	39,03
1096,104	38,81
1096,46	39,34
1096,816	38,46
1097,171	38,46
1097,527	38,82
1097,883	38,43
1098,239	38,99
1098,594	37,7
1098,95	39,39
1099,305	38,84
1099,66	37,9
1100,016	39,74
1100,371	39,38
1100,726	39,43
1101,081	38,14
1101,436	37,82
1101,791	39,93
1102,146	37,71
1102,5	39,46
1102,855	38,4
1103,21	39,34
1103,564	40,11
1103,918	38,16
1104,273	38,19
1104,627	38,61
1104,981	39,33
1105,335	41,69
1105,69	39,86
1106,043	38,69
1106,397	39,17
1106,751	37,3
1107,105	41,78
1107,459	36,64
1107,812	37,66
1108,166	38,27
1108,519	40,31
1108,873	38,95
1109,226	37,45
1109,579	40,36
1109,932	36,76
1110,285	40,75
1110,638	39,49
1110,991	41,29
1111,344	40,09
1111,697	41,22
1112,05	40,15
1112,402	38,14
1112,755	40,96
1113,107	38,75
1113,46	39,63
1113,812	40,93
1114,164	38,95
1114,517	41,5
1114,869	52,99
1115,221	52,42
1115,573	45,28
1115,924	44,53
