Data from G_4__Relative__2__00150.txt Node

Date: Mon Jan 29 18:25:48 CET 2024
User: diatiterra
Spectrometer: HDX00911
Trigger mode: 0
Integration Time (sec): 6,000000E-3
Scans to average: 2
Nonlinearity correction enabled: false
Boxcar width: 0
Storing dark spectrum: false
XAxis mode: Wavelengths
Number of Pixels in Spectrum: 2068
>>>>>Begin Spectral Data<<<<<
194,468	68,63
195,025	51,33
195,581	70,21
196,138	52,31
196,694	58,62
197,251	52,44
197,807	51,6
198,363	44
198,919	52,67
199,474	41,79
200,03	47,79
200,586	44,9
201,141	48,69
201,696	43,6
202,251	51,66
202,806	44,74
203,361	45,61
203,916	51,03
204,471	45,42
205,025	44,29
205,58	50,18
206,134	42,59
206,688	40,94
207,242	41,84
207,796	43,39
208,35	43,68
208,904	38,98
209,457	42,96
210,011	41,61
210,564	42,36
211,117	47,18
211,67	44,01
212,223	38,01
212,776	44,94
213,329	39,86
213,881	43,21
214,434	46,21
214,986	41,08
215,538	43,96
216,09	37,38
216,642	43,7
217,194	47,02
217,746	46,8
218,297	43,62
218,849	38,63
219,4	50,7
219,951	53,82
220,502	38,68
221,053	43,57
221,604	47,65
222,155	52,26
222,705	42,14
223,256	47,12
223,806	51,36
224,356	45,29
224,906	44,07
225,456	40
226,006	37,58
226,556	43,8
227,106	45,45
227,655	42,16
228,204	45,72
228,754	44,14
229,303	47,12
229,852	51,31
230,401	47,67
230,949	54,86
231,498	55,6
232,047	46,8
232,595	52,84
233,143	59,85
233,691	57,6
234,239	39,18
234,787	43,71
235,335	46,94
235,883	45,88
236,43	55,93
236,978	49,82
237,525	57,84
238,072	47,23
238,619	44,86
239,166	46,46
239,713	53,9
240,26	52,06
240,806	42,91
241,353	55,48
241,899	48,87
242,445	47,2
242,991	51,22
243,537	49,5
244,083	52,73
244,629	43,58
245,174	51,12
245,72	48,83
246,265	52,65
246,81	49,27
247,355	47,06
247,9	46,37
248,445	49,66
248,99	48,79
249,534	48,73
250,079	51,12
250,623	44,75
251,168	49,66
251,712	57,09
252,256	54,15
252,8	55,21
253,343	47,45
253,887	48,64
254,43	54,65
254,974	51,75
255,517	47,32
256,06	42,81
256,603	50,57
257,146	49,16
257,689	48,1
258,232	58,24
258,774	51,66
259,317	49,82
259,859	44,28
260,401	51,52
260,943	47,01
261,485	51,77
262,027	44,83
262,569	53,38
263,11	41,88
263,652	51,47
264,193	45
264,734	53,57
265,275	47,79
265,816	43,88
266,357	45,68
266,898	40,61
267,438	43,53
267,979	46,18
268,519	40,07
269,059	54,96
269,6	49,47
270,14	42,24
270,68	45,21
271,219	48,42
271,759	46,64
272,298	41,45
272,838	44,96
273,377	47,41
273,916	42,24
274,455	45,21
274,994	40,29
275,533	41,64
276,072	46,62
276,61	50,17
277,149	43,12
277,687	48,75
278,225	43,15
278,763	47,83
279,301	47,55
279,839	48,19
280,377	50,36
280,914	55,31
281,452	57,72
281,989	54,27
282,526	43,37
283,064	53,82
283,601	53,79
284,137	48,18
284,674	50,57
285,211	41,37
285,747	44,41
286,284	46,32
286,82	45,39
287,356	52,58
287,892	45,61
288,428	39,32
288,964	49,82
289,5	49,66
290,035	50
290,571	52,61
291,106	46,18
291,641	37,93
292,176	46,24
292,711	44,83
293,246	47,65
293,781	43,12
294,315	48,16
294,85	50,36
295,384	47,41
295,918	46,69
296,453	50,88
296,987	45,86
297,52	46,58
298,054	48,9
298,588	48,82
299,121	42,49
299,655	44,91
300,188	52,85
300,721	51,38
301,254	48,75
301,787	50,81
302,32	53,79
302,853	44,25
303,385	58,97
303,918	42,81
304,45	48,65
304,982	47,01
305,514	43,17
306,046	43,86
306,578	53,21
307,11	42,75
307,641	45,09
308,173	46,1
308,704	50,57
309,236	42,7
309,767	50,83
310,298	48,43
310,829	50,95
311,359	45,91
311,89	42,35
312,421	43,48
312,951	46,91
313,481	61,04
314,012	49,08
314,542	49,66
315,072	49,82
315,601	42,35
316,131	43,07
316,661	43,33
317,19	40,93
317,72	44,69
318,249	48,65
318,778	44,87
319,307	42,23
319,836	52,01
320,365	40,72
320,893	51,77
321,422	41,79
321,95	34,44
322,479	53,98
323,007	50
323,535	41,13
324,063	51,87
324,591	42,33
325,118	49,65
325,646	48,46
326,173	46,07
326,701	40,73
327,228	45,37
327,755	42,65
328,282	46,04
328,809	45,93
329,336	50,87
329,862	50,38
330,389	50,51
330,915	49,29
331,441	40
331,968	44,33
332,494	37,46
333,02	45,62
333,545	35,38
334,071	43,33
334,597	42,23
335,122	39,13
335,648	45,05
336,173	46,53
336,698	45,21
337,223	51,19
337,748	42,11
338,272	43,23
338,797	42,07
339,322	38,21
339,846	33,98
340,37	42,49
340,894	41,1
341,419	50
341,942	44,3
342,466	43,34
342,99	38,77
343,514	38,31
344,037	41,31
344,56	38,87
345,084	38,17
345,607	36,17
346,13	41,54
346,653	33,96
347,175	50,32
347,698	40,77
348,221	42,44
348,743	40,52
349,265	37,2
349,787	37,43
350,309	39,94
350,831	39,1
351,353	41,8
351,875	42,42
352,397	41,32
352,918	34,46
353,439	39,02
353,961	41,41
354,482	42,42
355,003	41,82
355,524	40,56
356,044	37,99
356,565	38,9
357,086	37,91
357,606	39,76
358,126	39,9
358,646	35,82
359,167	39,31
359,687	37,5
360,206	39,76
360,726	31,38
361,246	38,07
361,765	35,75
362,285	34,83
362,804	39,78
363,323	34,4
363,842	36,67
364,361	33,77
364,88	37,55
365,398	37,75
365,917	39,43
366,435	37,55
366,954	33,07
367,472	40,51
367,99	35,52
368,508	39,06
369,026	35,47
369,544	31,64
370,061	36,73
370,579	34,52
371,096	38,87
371,613	37,43
372,131	38,73
372,648	37,91
373,165	42,29
373,681	35,73
374,198	36,07
374,715	36,46
375,231	34,82
375,747	36,2
376,264	35,62
376,78	36,36
377,296	36,55
377,812	33,53
378,327	31,26
378,843	34,42
379,359	36,38
379,874	34,29
380,389	37
380,905	34,48
381,42	31,07
381,935	36,4
382,449	34,31
382,964	33,13
383,479	34,87
383,993	34,98
384,508	34,89
385,022	34,42
385,536	30,76
386,05	33,33
386,564	32,74
387,078	29,21
387,592	31,67
388,105	29,6
388,619	31,17
389,132	29,18
389,645	33,99
390,158	28
390,671	32,18
391,184	27,52
391,697	26,95
392,21	28,98
392,722	27,44
393,235	27,17
393,747	27,46
394,259	28,18
394,771	26,32
395,283	27,55
395,795	26,86
396,307	27,73
396,818	27,99
397,33	23,54
397,841	27,92
398,353	24,53
398,864	24,36
399,375	26,1
399,886	26,06
400,397	25,08
400,907	23,73
401,418	23,85
401,928	22,47
402,439	22,85
402,949	20,6
403,459	21,57
403,969	21,83
404,479	21,51
404,989	21,46
405,498	20,13
406,008	19,41
406,517	18,27
407,027	18,23
407,536	16,96
408,045	16,83
408,554	16,27
409,063	16,66
409,572	15,19
410,08	15,49
410,589	14,77
411,097	14,75
411,606	13,97
412,114	13,98
412,622	13,55
413,13	13,77
413,638	12,43
414,145	12,14
414,653	12,04
415,16	11,68
415,668	11,72
416,175	11,01
416,682	11,13
417,189	10,42
417,696	11,29
418,203	10,7
418,71	10,11
419,216	9,8
419,723	10,5
420,229	9,72
420,735	9,37
421,242	9,43
421,748	10,06
422,254	9,38
422,759	9,44
423,265	9,06
423,771	8,73
424,276	9,65
424,781	9,46
425,287	8,98
425,792	9,53
426,297	8,99
426,802	8,63
427,306	9,02
427,811	8,64
428,316	9,15
428,82	8,68
429,324	8,82
429,829	8,81
430,333	8,64
430,837	8,7
431,34	8,7
431,844	9,09
432,348	8,52
432,851	8,33
433,355	8,38
433,858	7,67
434,361	8,19
434,864	8,09
435,367	8,42
435,87	8,38
436,373	8,57
436,876	8,05
437,378	7,9
437,88	7,84
438,383	8,22
438,885	8,08
439,387	7,74
439,889	8,14
440,391	8,5
440,892	7,98
441,394	8,09
441,896	8,06
442,397	7,97
442,898	8,2
443,399	8,04
443,9	8,35
444,401	8,18
444,902	8,16
445,403	8,52
445,903	8,33
446,404	8,27
446,904	8,31
447,405	8,05
447,905	8,38
448,405	8,19
448,905	8,5
449,404	8,07
449,904	8,32
450,404	8,27
450,903	8,48
451,403	8,55
451,902	8,47
452,401	8,52
452,9	8,68
453,399	8,69
453,898	8,84
454,396	8,83
454,895	8,55
455,393	8,43
455,892	8,8
456,39	8,84
456,888	8,63
457,386	8,45
457,884	8,83
458,382	8,61
458,879	8,86
459,377	8,76
459,874	8,53
460,372	8,69
460,869	8,72
461,366	9
461,863	8,9
462,36	8,78
462,857	8,73
463,353	8,73
463,85	8,65
464,346	9,12
464,843	8,74
465,339	8,67
465,835	8,97
466,331	8,47
466,827	8,53
467,323	9
467,818	8,97
468,314	8,86
468,809	8,71
469,305	8,93
469,8	8,82
470,295	8,54
470,79	8,95
471,285	8,85
471,78	8,67
472,274	8,73
472,769	9,14
473,263	8,61
473,758	8,78
474,252	9,07
474,746	8,79
475,24	8,6
475,734	8,66
476,228	9,25
476,721	8,85
477,215	8,94
477,708	8,83
478,202	9,05
478,695	8,9
479,188	8,94
479,681	8,85
480,174	8,92
480,667	8,82
481,159	9,11
481,652	9,12
482,144	8,84
482,637	9
483,129	9,08
483,621	9,05
484,113	9,18
484,605	9,02
485,097	9,14
485,588	9,3
486,08	9,27
486,571	8,96
487,063	9,42
487,554	9,42
488,045	9,19
488,536	9,25
489,027	9,08
489,518	9,65
490,008	9,5
490,499	9,26
490,989	9,42
491,48	9,59
491,97	9,74
492,46	9,34
492,95	9,66
493,44	9,91
493,93	9,75
494,419	9,61
494,909	10,07
495,398	9,89
495,888	10,19
496,377	10,08
496,866	10,02
497,355	10,57
497,844	10,46
498,333	10,38
498,821	10,74
499,31	10,77
499,798	10,75
500,287	10,72
500,775	11,21
501,263	11,31
501,751	11,19
502,239	11,35
502,727	11,59
503,215	11,8
503,702	12,23
504,19	12,24
504,677	11,92
505,164	12,14
505,651	12,72
506,139	12,43
506,625	12,88
507,112	13,02
507,599	13,15
508,086	13,36
508,572	13,82
509,058	14,07
509,545	14,29
510,031	14,46
510,517	14,71
511,003	14,99
511,489	15,1
511,974	15,39
512,46	15,82
512,946	15,81
513,431	16,23
513,916	16,66
514,401	16,95
514,887	17,54
515,371	17,51
515,856	17,63
516,341	17,82
516,826	18,41
517,31	18,96
517,795	19,19
518,279	19,18
518,763	19,5
519,247	20,32
519,731	21
520,215	20,88
520,699	21,17
521,182	21,55
521,666	21,83
522,149	21,92
522,633	22,92
523,116	23,04
523,599	22,95
524,082	23,38
524,565	23,63
525,048	23,96
525,53	24,61
526,013	24,45
526,495	25,06
526,978	24,98
527,46	25,68
527,942	25,69
528,424	26,06
528,906	26,01
529,388	26,04
529,87	26,64
530,351	26,65
530,833	26,93
531,314	27,16
531,795	27,49
532,277	27,39
532,758	27,85
533,238	27,85
533,719	28,04
534,2	28,67
534,681	28,14
535,161	28,72
535,642	28,17
536,122	28,41
536,602	28,74
537,082	29,1
537,562	29,01
538,042	28,75
538,522	29,05
539,001	28,9
539,481	29,06
539,96	29,1
540,44	29,24
540,919	29,07
541,398	29,21
541,877	29,2
542,356	29,44
542,835	29,43
543,313	29,57
543,792	29,41
544,27	29,6
544,749	29,77
545,227	29,68
545,705	29,6
546,183	30,06
546,661	29,68
547,139	30,13
547,616	29,96
548,094	29,96
548,571	30,34
549,049	29,95
549,526	29,73
550,003	30,16
550,48	30,43
550,957	30,24
551,434	29,94
551,911	29,95
552,387	30,04
552,864	30,2
553,34	30,07
553,817	30,47
554,293	30,08
554,769	30,08
555,245	30,07
555,721	30,31
556,197	30,28
556,672	30,25
557,148	30,12
557,623	30,29
558,099	29,8
558,574	30,19
559,049	30,23
559,524	29,94
559,999	29,58
560,474	29,6
560,948	29,56
561,423	29,73
561,897	29,62
562,372	29,85
562,846	29,75
563,32	29,13
563,794	29,12
564,268	29,09
564,742	29,01
565,216	29,03
565,69	28,66
566,163	28,71
566,636	28,62
567,11	28,34
567,583	28,08
568,056	28,36
568,529	27,84
569,002	27,48
569,475	27,14
569,947	27,4
570,42	26,99
570,892	26,87
571,365	26,81
571,837	26,77
572,309	26,55
572,781	26,19
573,253	26,1
573,725	25,64
574,197	25,69
574,668	25,55
575,14	25,4
575,611	25,18
576,082	24,8
576,554	24,85
577,025	24,63
577,496	24,42
577,967	24,45
578,437	24,15
578,908	23,85
579,379	23,77
579,849	23,84
580,319	23,58
580,79	23,5
581,26	23,35
581,73	23,38
582,2	23,39
582,669	23,16
583,139	23,07
583,609	22,79
584,078	22,61
584,548	22,28
585,017	22,33
585,486	22,44
585,955	22,03
586,424	21,93
586,893	22,15
587,362	21,93
587,83	21,77
588,299	21,66
588,767	21,74
589,236	21,34
589,704	21,72
590,172	21,39
590,64	21,28
591,108	21,17
591,576	21,29
592,043	20,95
592,511	21,08
592,978	20,81
593,446	20,91
593,913	20,99
594,38	20,85
594,847	20,72
595,314	20,75
595,781	20,46
596,248	20,63
596,715	20,59
597,181	20,39
597,647	20,37
598,114	20,2
598,58	20,47
599,046	20,3
599,512	20,36
599,978	20,23
600,444	20,31
600,91	20,23
601,375	20,05
601,841	20,1
602,306	20,01
602,771	20,02
603,236	19,94
603,702	19,59
604,167	19,62
604,631	19,63
605,096	19,68
605,561	19,63
606,025	19,51
606,49	19,39
606,954	19,19
607,418	19,31
607,882	19,24
608,347	19,19
608,81	18,94
609,274	19,01
609,738	18,76
610,202	18,72
610,665	18,68
611,128	18,54
611,592	18,48
612,055	18,24
612,518	18,29
612,981	18,17
613,444	18,12
613,907	17,63
614,369	17,76
614,832	17,74
615,294	17,84
615,757	17,44
616,219	17,57
616,681	17,43
617,143	17,38
617,605	17,08
618,067	17,13
618,529	16,95
618,99	17,02
619,452	16,88
619,913	16,62
620,375	16,48
620,836	16,71
621,297	16,57
621,758	16,59
622,219	16,43
622,68	16,4
623,14	16,2
623,601	16,13
624,061	16,09
624,522	16,47
624,982	16,32
625,442	16,08
625,902	16,12
626,362	15,99
626,822	16,25
627,282	16,04
627,742	16,08
628,201	16,05
628,661	15,85
629,12	15,8
629,579	15,8
630,038	15,85
630,497	15,97
630,956	16,03
631,415	15,87
631,874	15,82
632,332	15,62
632,791	15,89
633,249	15,52
633,708	15,53
634,166	15,4
634,624	15,36
635,082	15,31
635,54	15,3
635,998	15,29
636,455	15,13
636,913	14,93
637,37	14,89
637,828	14,75
638,285	14,52
638,742	14,58
639,199	14,34
639,656	14,23
640,113	14,06
640,57	14,08
641,027	13,9
641,483	13,83
641,94	13,59
642,396	13,67
642,852	13,4
643,309	13,39
643,765	12,97
644,221	12,92
644,676	12,83
645,132	12,74
645,588	12,65
646,043	12,41
646,499	12,12
646,954	12,16
647,409	11,85
647,864	12
648,319	11,81
648,774	11,58
649,229	11,73
649,684	11,61
650,139	11,51
650,593	11,54
651,047	11,4
651,502	11,43
651,956	11,18
652,41	11,16
652,864	11,11
653,318	11,02
653,772	10,98
654,225	11,04
654,679	10,98
655,133	10,93
655,586	10,85
656,039	10,83
656,492	10,77
656,946	10,66
657,399	10,56
657,851	10,58
658,304	10,52
658,757	10,41
659,209	10,23
659,662	10,11
660,114	10
660,567	9,99
661,019	9,91
661,471	9,82
661,923	9,77
662,375	9,75
662,826	9,49
663,278	9,56
663,73	9,5
664,181	9,33
664,632	9,41
665,084	9,35
665,535	9,28
665,986	9,27
666,437	9,19
666,888	9,14
667,338	9,02
667,789	9,06
668,24	9,15
668,69	9,12
669,14	9,12
669,591	9,07
670,041	9,1
670,491	9,03
670,941	9,16
671,391	9,17
671,84	9,22
672,29	9,31
672,74	9,29
673,189	9,36
673,638	9,46
674,088	9,5
674,537	9,53
674,986	9,51
675,435	9,61
675,883	9,77
676,332	9,81
676,781	9,94
677,229	9,97
677,678	10,09
678,126	10,18
678,574	10,22
679,022	10,41
679,47	10,57
679,918	10,57
680,366	10,79
680,814	10,67
681,261	10,95
681,709	11,03
682,156	11,13
682,604	11,41
683,051	11,48
683,498	11,6
683,945	11,76
684,392	11,86
684,839	12,01
685,286	12,34
685,732	12,3
686,179	12,58
686,625	12,68
687,071	12,94
687,518	12,96
687,964	13,44
688,41	13,52
688,856	13,97
689,301	14,16
689,747	14,54
690,193	14,78
690,638	15,25
691,084	15,48
691,529	16,12
691,974	16,49
692,419	16,81
692,864	17,52
693,309	17,91
693,754	18,25
694,199	18,89
694,643	19,35
695,088	19,9
695,532	20,52
695,977	21,04
696,421	21,62
696,865	22,44
697,309	22,91
697,753	23,29
698,197	24,15
698,64	24,56
699,084	24,93
699,527	25,46
699,971	26,37
700,414	26,66
700,857	27,21
701,3	27,78
701,743	28,23
702,186	28,62
702,629	29,48
703,072	29,61
703,515	30,39
703,957	30,75
704,399	31,02
704,842	31,58
705,284	32
705,726	32,68
706,168	32,98
706,61	33,26
707,052	33,95
707,494	34,03
707,935	34,52
708,377	34,77
708,818	35,12
709,26	35,66
709,701	36,23
710,142	36,43
710,583	36,66
711,024	37,2
711,465	37,37
711,905	37,9
712,346	38,2
712,787	38,47
713,227	39,1
713,667	39,38
714,108	39,54
714,548	39,93
714,988	40,23
715,428	40,31
715,868	40,44
716,307	41,07
716,747	41,52
717,186	41,67
717,626	42,02
718,065	42,02
718,504	42,28
718,944	42,75
719,383	42,96
719,822	43,02
720,261	43,84
720,699	43,66
721,138	43,83
721,576	44,07
722,015	44,13
722,453	44,75
722,892	45,03
723,33	44,89
723,768	45,23
724,206	45,18
724,644	45,63
725,081	45,63
725,519	45,75
725,957	45,77
726,394	46,06
726,832	46,46
727,269	46,22
727,706	46,71
728,143	47,01
728,58	46,8
729,017	47
729,454	47,2
729,89	47,14
730,327	47,43
730,764	47,58
731,2	47,65
731,636	47,66
732,072	47,72
732,509	47,98
732,945	47,86
733,38	48,32
733,816	48,14
734,252	48,05
734,688	48,29
735,123	48,18
735,559	48,42
735,994	48,55
736,429	48,3
736,864	48,44
737,299	48,64
737,734	48,62
738,169	48,72
738,604	48,96
739,038	48,88
739,473	48,86
739,907	48,69
740,342	48,94
740,776	48,7
741,21	48,61
741,644	49,05
742,078	48,87
742,512	49,18
742,946	48,65
743,379	48,99
743,813	48,68
744,246	48,89
744,68	48,89
745,113	48,66
745,546	49,04
745,979	48,74
746,412	48,63
746,845	48,92
747,278	48,57
747,711	48,51
748,143	48,58
748,576	48,82
749,008	48,82
749,441	48,58
749,873	48,54
750,305	48,75
750,737	48,21
751,169	48,27
751,601	48,5
752,032	48,45
752,464	48,46
752,896	48,43
753,327	48,25
753,758	48,57
754,19	48,13
754,621	48,06
755,052	48,11
755,483	48,12
755,914	48,08
756,344	48,01
756,775	48,14
757,206	48,26
757,636	47,69
758,066	48,04
758,497	47,98
758,927	47,96
759,357	48,09
759,787	47,77
760,217	47,63
760,647	47,71
761,076	47,77
761,506	47,92
761,935	47,89
762,365	47,42
762,794	47,44
763,223	47,5
763,653	47,69
764,082	47,69
764,51	47,33
764,939	47,43
765,368	47,48
765,797	47,33
766,225	47,45
766,654	47,25
767,082	47,56
767,51	47,21
767,938	47,11
768,367	46,99
768,795	46,71
769,222	46,84
769,65	46,99
770,078	47,16
770,505	46,79
770,933	47,05
771,36	46,84
771,788	47,01
772,215	46,72
772,642	47,22
773,069	46,91
773,496	46,83
773,923	46,72
774,349	46,83
774,776	46,72
775,203	46,42
775,629	46,74
776,055	46,69
776,482	46,87
776,908	46,57
777,334	46,74
777,76	46,58
778,186	46,87
778,611	46,68
779,037	46,62
779,463	46,55
779,888	46,75
780,314	46,49
780,739	46,49
781,164	46,3
781,589	46,64
782,014	46,49
782,439	46,43
782,864	46,6
783,289	46,44
783,713	46,2
784,138	46,44
784,562	46,39
784,987	46,37
785,411	46,28
785,835	46,34
786,259	46,18
786,683	46,42
787,107	46,43
787,531	46,37
787,954	46,42
788,378	46,4
788,802	46,09
789,225	46,29
789,648	46,46
790,071	46,3
790,495	46,33
790,918	45,98
791,34	46,34
791,763	46,17
792,186	46,29
792,609	46,08
793,031	46,22
793,454	46,02
793,876	46,32
794,298	45,96
794,721	46,22
795,143	46,02
795,565	46,13
795,986	45,77
796,408	46,53
796,83	46,1
797,252	46,04
797,673	45,92
798,094	46,28
798,516	46,24
798,937	45,79
799,358	46
799,779	46,09
800,2	45,94
800,621	45,87
801,042	46,12
801,462	46,06
801,883	46,11
802,303	45,91
802,724	45,71
803,144	46,33
803,564	46,05
803,984	45,59
804,404	45,67
804,824	45,88
805,244	45,98
805,664	45,98
806,084	45,93
806,503	45,91
806,923	45,92
807,342	45,92
807,761	45,64
808,18	45,94
808,599	45,75
809,018	45,86
809,437	45,68
809,856	45,51
810,275	46,02
810,693	45,92
811,112	45,96
811,53	45,98
811,949	46,01
812,367	45,69
812,785	45,65
813,203	45,62
813,621	45,61
814,039	45,75
814,457	45,75
814,874	45,72
815,292	46,02
815,709	45,88
816,127	45,6
816,544	45,94
816,961	46,05
817,378	46,23
817,795	45,61
818,212	45,81
818,629	45,75
819,046	45,96
819,462	45,81
819,879	45,73
820,295	45,59
820,712	45,65
821,128	45,85
821,544	45,35
821,96	45,98
822,376	45,54
822,792	45,55
823,208	45,63
823,624	45,71
824,039	45,82
824,455	45,73
824,87	45,54
825,286	45,73
825,701	45,59
826,116	45,84
826,531	45,35
826,946	45,17
827,361	45,93
827,776	46,11
828,19	45,45
828,605	45,8
829,02	45,69
829,434	45,35
829,848	45,38
830,263	45,85
830,677	45,64
831,091	45,87
831,505	45,61
831,919	45,78
832,332	45,48
832,746	45,55
833,16	45,43
833,573	45,5
833,987	45,67
834,4	45,69
834,813	45,7
835,226	45,48
835,639	45,36
836,052	45,47
836,465	45,55
836,878	45,21
837,29	45,59
837,703	45,49
838,116	45,5
838,528	45,52
838,94	45,44
839,352	45,51
839,765	45,48
840,177	45,47
840,589	45,3
841	45,52
841,412	45,41
841,824	45,5
842,235	45,59
842,647	45,37
843,058	45,7
843,47	45,6
843,881	45,3
844,292	45,41
844,703	45,66
845,114	45,14
845,525	45,33
845,935	45,38
846,346	45,15
846,757	45,23
847,167	45,81
847,577	45,59
847,988	45,49
848,398	45,81
848,808	45,37
849,218	45,28
849,628	45,31
850,038	45,59
850,448	45,19
850,857	45,25
851,267	45,37
851,676	45,73
852,086	45,45
852,495	45,24
852,904	45,02
853,313	45,36
853,722	45,14
854,131	45,05
854,54	45,26
854,949	45,51
855,357	45,3
855,766	45,28
856,174	45,05
856,583	45,01
856,991	45,17
857,399	45,37
857,807	45,21
858,215	45,19
858,623	45,28
859,031	45,36
859,439	45,09
859,846	45,31
860,254	45,32
860,661	45,44
861,069	45,27
861,476	45,05
861,883	45,19
862,29	45,47
862,697	45,32
863,104	45,45
863,511	45,02
863,918	45,2
864,325	45,23
864,731	45
865,138	45,22
865,544	45,41
865,95	45,24
866,357	45,37
866,763	45,18
867,169	45,17
867,575	45,56
867,98	44,98
868,386	45,1
868,792	45,29
869,197	45,42
869,603	45
870,008	45,36
870,414	45,25
870,819	45,43
871,224	45,01
871,629	45,13
872,034	45,52
872,439	45,3
872,844	44,94
873,248	45,14
873,653	45,08
874,057	45,29
874,462	45,03
874,866	45,09
875,27	44,95
875,674	45,19
876,078	45,26
876,482	45,22
876,886	45,23
877,29	45,37
877,694	45,2
878,097	45,13
878,501	45,17
878,904	45,14
879,308	45,23
879,711	45,08
880,114	45,16
880,517	45,21
880,92	45,17
881,323	45,28
881,726	45,21
882,128	45,41
882,531	45,13
882,934	45,28
883,336	44,89
883,738	45,05
884,141	44,94
884,543	45,05
884,945	44,81
885,347	45,31
885,749	45,08
886,151	45,27
886,552	45,36
886,954	44,9
887,355	45,17
887,757	45,22
888,158	44,97
888,56	45,35
888,961	45,1
889,362	45,11
889,763	45,03
890,164	44,93
890,565	45,03
890,965	45,21
891,366	45,14
891,767	45
892,167	44,93
892,567	45,16
892,968	45,04
893,368	45,14
893,768	45,27
894,168	45,05
894,568	45,04
894,968	45,07
895,368	44,99
895,767	44,83
896,167	45,14
896,566	45,46
896,966	44,8
897,365	45,09
897,764	45,07
898,164	44,98
898,563	45,2
898,962	45,14
899,361	45,48
899,759	44,73
900,158	45,07
900,557	45,23
900,955	45,22
901,354	45,1
901,752	45,34
902,15	45,24
902,548	45,02
902,947	45,22
903,345	45,11
903,742	44,97
904,14	45,24
904,538	45,1
904,936	45,3
905,333	45,11
905,731	45,64
906,128	45,42
906,525	45,3
906,923	45,11
907,32	45,01
907,717	44,7
908,114	45,5
908,511	45,13
908,907	44,96
909,304	45,2
909,701	44,93
910,097	45,24
910,494	44,9
910,89	44,79
911,286	44,9
911,682	44,97
912,078	44,92
912,474	44,61
912,87	44,74
913,266	45,2
913,662	44,92
914,058	44,72
914,453	45,25
914,849	44,98
915,244	45,23
915,639	44,83
916,034	45,05
916,43	45,27
916,825	45,04
917,22	45,02
917,614	45,15
918,009	45,03
918,404	44,96
918,798	45,17
919,193	44,64
919,587	45,17
919,982	44,85
920,376	45,03
920,77	45,05
921,164	45,11
921,558	45,14
921,952	45,04
922,346	44,95
922,74	45,12
923,133	45,27
923,527	45,08
923,92	44,75
924,314	44,98
924,707	45,08
925,1	44,61
925,493	45,13
925,886	44,85
926,279	45,1
926,672	44,7
927,065	45,03
927,457	44,69
927,85	45,14
928,243	44,78
928,635	45,29
929,027	44,8
929,42	44,84
929,812	44,68
930,204	45,22
930,596	44,69
930,988	45,06
931,379	44,86
931,771	45,01
932,163	44,68
932,554	44,62
932,946	44,47
933,337	45,2
933,729	45,16
934,12	44,79
934,511	44,74
934,902	44,41
935,293	44,92
935,684	44,91
936,075	44,52
936,465	44,86
936,856	44,49
937,246	44,35
937,637	44,27
938,027	44,39
938,417	44,87
938,808	44,77
939,198	44,27
939,588	44,51
939,978	44,98
940,368	44,17
940,757	44,58
941,147	44,61
941,537	43,9
941,926	44,49
942,315	44,31
942,705	44,27
943,094	44,5
943,483	44,25
943,872	44,26
944,261	44,27
944,65	44,11
945,039	44,37
945,428	44,96
945,816	44,5
946,205	44,52
946,593	44,37
946,982	44,1
947,37	44,43
947,758	44,94
948,146	44,5
948,534	44,33
948,922	44,06
949,31	44,66
949,698	44,12
950,086	44,21
950,473	44,76
950,861	43,94
951,248	44,54
951,636	43,85
952,023	44,05
952,41	43,65
952,797	44,15
953,184	43,56
953,571	43,37
953,958	44,24
954,345	43,94
954,731	43,34
955,118	44,15
955,505	43,64
955,891	43,28
956,277	44,08
956,664	43,95
957,05	44,11
957,436	44,23
957,822	43,72
958,208	44,05
958,594	43,28
958,979	43,38
959,365	43,62
959,751	44,13
960,136	43,84
960,522	43,42
960,907	43,88
961,292	43,54
961,677	44,11
962,062	43,96
962,447	43,23
962,832	43,92
963,217	43,62
963,602	43,77
963,986	43,93
964,371	43,74
964,756	43,63
965,14	43,89
965,524	43,66
965,908	43,7
966,293	43,8
966,677	43,37
967,061	43,69
967,445	43,49
967,828	43,74
968,212	43,5
968,596	43,84
968,979	43,76
969,363	43,97
969,746	43,59
970,129	43,35
970,513	43,19
970,896	44,1
971,279	43,38
971,662	43,52
972,045	43,6
972,428	43,42
972,81	43,67
973,193	43,87
973,575	43,33
973,958	43,79
974,34	44,03
974,723	43,76
975,105	43,55
975,487	43,63
975,869	43,34
976,251	43,6
976,633	43,45
977,015	43,85
977,396	44,05
977,778	44,19
978,16	43,87
978,541	43,4
978,922	43,84
979,304	43,74
979,685	43,9
980,066	44,39
980,447	43,88
980,828	43,37
981,209	43,89
981,59	43,46
981,97	43,79
982,351	43,87
982,732	43,77
983,112	43,92
983,493	43,86
983,873	43,59
984,253	44,12
984,633	43,27
985,013	43,91
985,393	43,94
985,773	43,67
986,153	43,75
986,533	43,29
986,912	43,95
987,292	44,01
987,671	43,59
988,051	43,63
988,43	43,62
988,809	43,58
989,188	44,19
989,567	44,23
989,946	43,66
990,325	43,87
990,704	44,24
991,083	43,83
991,461	43,93
991,84	44,03
992,218	44,1
992,597	43,25
992,975	44,44
993,353	43,76
993,732	43,9
994,11	44,13
994,488	44,01
994,866	44,21
995,243	43,69
995,621	44,39
995,999	43,4
996,376	44,13
996,754	44,51
997,131	44,59
997,509	43,62
997,886	43,7
998,263	44,42
998,64	43,96
999,017	44,18
999,394	43,35
999,771	43,49
1000,148	43,93
1000,524	44,27
1000,901	43,67
1001,277	44,11
1001,654	44,23
1002,03	43,84
1002,406	44,11
1002,783	43,4
1003,159	44,71
1003,535	44,2
1003,911	44,03
1004,286	43,55
1004,662	43,95
1005,038	43,67
1005,414	44,32
1005,789	44,1
1006,164	44,2
1006,54	44,35
1006,915	43,68
1007,29	44,14
1007,665	43,71
1008,04	44,17
1008,415	44,51
1008,79	44,57
1009,165	44,74
1009,54	43,61
1009,914	43,83
1010,289	43,92
1010,663	44,39
1011,038	43,74
1011,412	44,48
1011,786	43,48
1012,16	44,5
1012,535	43,49
1012,909	44,23
1013,282	43,87
1013,656	43,8
1014,03	44,47
1014,404	43,95
1014,777	44,54
1015,151	43,74
1015,524	44,26
1015,897	44,21
1016,271	43,97
1016,644	44
1017,017	43,96
1017,39	44,11
1017,763	44,25
1018,136	44,35
1018,508	44,66
1018,881	44,12
1019,254	44,41
1019,626	44,27
1019,999	44,48
1020,371	44,42
1020,743	44,25
1021,116	44,3
1021,488	43,82
1021,86	44,12
1022,232	44,61
1022,604	44,39
1022,975	44,39
1023,347	44,82
1023,719	44,01
1024,09	44,09
1024,462	43,93
1024,833	44,03
1025,204	43,73
1025,576	44,81
1025,947	44,62
1026,318	44,52
1026,689	45,23
1027,06	44,16
1027,431	44,42
1027,801	44,71
1028,172	44,56
1028,543	44,46
1028,913	44,51
1029,284	43,78
1029,654	44,1
1030,024	43,96
1030,394	45,29
1030,764	45,59
1031,135	44,52
1031,504	44,51
1031,874	44,47
1032,244	44,9
1032,614	44,86
1032,983	44,49
1033,353	43,8
1033,722	44,83
1034,092	43,98
1034,461	44,16
1034,83	44,38
1035,2	44,41
1035,569	44,98
1035,938	44,49
1036,307	44,32
1036,675	44,67
1037,044	44,82
1037,413	44,23
1037,781	44,73
1038,15	44,5
1038,518	44,48
1038,887	45,2
1039,255	43,93
1039,623	43,83
1039,991	44,73
1040,359	44,02
1040,727	44,81
1041,095	44,85
1041,463	45,3
1041,831	44,02
1042,198	44,07
1042,566	44,25
1042,933	44,81
1043,301	44,46
1043,668	45,06
1044,035	44,6
1044,402	45,11
1044,77	45,36
1045,137	45,01
1045,503	44,34
1045,87	45
1046,237	44,13
1046,604	44,76
1046,97	45,3
1047,337	44,8
1047,703	44,36
1048,07	44,9
1048,436	44,26
1048,802	45,48
1049,168	45,42
1049,534	44,43
1049,9	44,86
1050,266	45,1
1050,632	44,7
1050,998	45,24
1051,364	45,09
1051,729	44,85
1052,095	44,17
1052,46	45,16
1052,825	45,1
1053,191	44,92
1053,556	44,42
1053,921	44,62
1054,286	45,52
1054,651	44,96
1055,016	45,13
1055,381	45,22
1055,745	45,58
1056,11	45,22
1056,475	43,6
1056,839	44,53
1057,203	45,32
1057,568	44,67
1057,932	44,46
1058,296	45
1058,66	44,86
1059,024	44,93
1059,388	44,9
1059,752	44,5
1060,116	45,37
1060,48	45,58
1060,843	45,08
1061,207	44,97
1061,57	45,37
1061,934	45,03
1062,297	45,71
1062,66	45,26
1063,023	44,68
1063,386	44,68
1063,749	44,95
1064,112	44,61
1064,475	44,84
1064,838	43,94
1065,201	44,73
1065,563	44,32
1065,926	44,85
1066,288	44,99
1066,651	44,86
1067,013	44,08
1067,375	44,53
1067,737	43,96
1068,099	45,22
1068,461	44,49
1068,823	44,54
1069,185	45,07
1069,547	43,73
1069,909	44,6
1070,27	44,15
1070,632	44,91
1070,993	44,48
1071,355	45,28
1071,716	45,84
1072,077	45,21
1072,438	45,44
1072,799	43,92
1073,16	44,56
1073,521	45,15
1073,882	44,26
1074,243	45,31
1074,603	45,62
1074,964	44,17
1075,325	44,99
1075,685	45,43
1076,045	45,37
1076,406	44,26
1076,766	46,15
1077,126	45,29
1077,486	46,01
1077,846	43,96
1078,206	45,9
1078,566	45,33
1078,925	45,61
1079,285	45,48
1079,645	46,52
1080,004	44,73
1080,364	44,71
1080,723	43,89
1081,082	46,25
1081,442	43,88
1081,801	46,16
1082,16	45,12
1082,519	46,08
1082,878	43,92
1083,237	43,86
1083,595	46,75
1083,954	45,51
1084,313	45,04
1084,671	46,47
1085,03	45,09
1085,388	43,83
1085,746	44,38
1086,104	44,7
1086,463	44,31
1086,821	45,04
1087,179	44,77
1087,537	45,52
1087,894	42,9
1088,252	42,73
1088,61	45,12
1088,967	45,97
1089,325	44,69
1089,682	43,33
1090,04	43,59
1090,397	44,43
1090,754	44,47
1091,111	45,41
1091,469	44,42
1091,826	46,06
1092,182	44,46
1092,539	45,98
1092,896	46,3
1093,253	45,37
1093,609	45,96
1093,966	43,28
1094,322	44,87
1094,679	44,58
1095,035	43,95
1095,391	45,35
1095,748	44,97
1096,104	45,68
1096,46	44,38
1096,816	45,34
1097,171	45,75
1097,527	45,1
1097,883	43,8
1098,239	46,63
1098,594	46,49
1098,95	44,44
1099,305	45,48
1099,66	45,8
1100,016	44,86
1100,371	46,61
1100,726	44,43
1101,081	43,39
1101,436	44,62
1101,791	45,13
1102,146	44,65
1102,5	45,63
1102,855	45,55
1103,21	45,4
1103,564	47,53
1103,918	46,22
1104,273	45,86
1104,627	44,6
1104,981	44,46
1105,335	47,76
1105,69	47,04
1106,043	45,68
1106,397	43,57
1106,751	46,08
1107,105	46,38
1107,459	44,93
1107,812	44,88
1108,166	45,09
1108,519	46,12
1108,873	45,58
1109,226	45,8
1109,579	46,83
1109,932	43,72
1110,285	44,68
1110,638	43,6
1110,991	44,69
1111,344	44,44
1111,697	43,72
1112,05	46,03
1112,402	47,45
1112,755	47,01
1113,107	45,3
1113,46	46,57
1113,812	44,45
1114,164	47,52
1114,517	47,71
1114,869	66,67
1115,221	62,1
1115,573	52,83
1115,924	54,74
