Data from H_1__Relative__6__00172.txt Node

Date: Mon Jan 29 18:28:14 CET 2024
User: diatiterra
Spectrometer: HDX00911
Trigger mode: 0
Integration Time (sec): 6,000000E-3
Scans to average: 2
Nonlinearity correction enabled: false
Boxcar width: 0
Storing dark spectrum: false
XAxis mode: Wavelengths
Number of Pixels in Spectrum: 2068
>>>>>Begin Spectral Data<<<<<
194,468	60,78
195,025	22,12
195,581	65,96
196,138	36,92
196,694	40,8
197,251	38,67
197,807	40,8
198,363	36,73
198,919	37,72
199,474	36,43
200,03	30,15
200,586	34,69
201,141	33,33
201,696	37,72
202,251	39,11
202,806	42,11
203,361	34,39
203,916	40,75
204,471	36,97
205,025	33,21
205,58	31,54
206,134	30
206,688	32,61
207,242	44,9
207,796	29,49
208,35	29,24
208,904	34,58
209,457	29,24
210,011	37,41
210,564	37,85
211,117	34,51
211,67	33,1
212,223	34,93
212,776	40,82
213,329	31,62
213,881	35,36
214,434	38,28
214,986	31,65
215,538	32,6
216,09	30,49
216,642	39,26
217,194	38,41
217,746	37,71
218,297	27,85
218,849	30,53
219,4	38,81
219,951	41,82
220,502	30,31
221,053	37,93
221,604	43,29
222,155	34,16
222,705	38,13
223,256	39,93
223,806	30,95
224,356	37,32
224,906	38,89
225,456	36,21
226,006	31,54
226,556	39,42
227,106	39,51
227,655	34,15
228,204	30,92
228,754	33,79
229,303	38,64
229,852	34,64
230,401	33,69
230,949	46,69
231,498	33,21
232,047	31,65
232,595	32,62
233,143	39,02
233,691	36,8
234,239	44,78
234,787	31,12
235,335	35,37
235,883	42,29
236,43	39,63
236,978	37,82
237,525	42,16
238,072	32,1
238,619	30,82
239,166	40,07
239,713	43,49
240,26	40,45
240,806	36,52
241,353	48,76
241,899	38,83
242,445	41,26
242,991	39,02
243,537	42,9
244,083	42,91
244,629	40,2
245,174	41,42
245,72	38,46
246,265	37,1
246,81	40,88
247,355	41,54
247,9	39,1
248,445	48,97
248,99	37,72
249,534	39,56
250,079	41,04
250,623	37,63
251,168	50,34
251,712	39,01
252,256	37,87
252,8	37,15
253,343	40,13
253,887	36,73
254,43	48,33
254,974	38,81
255,517	36,91
256,06	41,44
256,603	42,64
257,146	34,68
257,689	40,19
258,232	40,23
258,774	41,7
259,317	44,69
259,859	35,79
260,401	41,29
260,943	39,55
261,485	42,2
262,027	38,28
262,569	45,49
263,11	40,07
263,652	37,13
264,193	37,86
264,734	47,22
265,275	40,96
265,816	50
266,357	39,93
266,898	34,13
267,438	42,35
267,979	44,73
268,519	36,1
269,059	35,82
269,6	41,4
270,14	39,6
270,68	42,15
271,219	44,21
271,759	33,21
272,298	40,36
272,838	39,53
273,377	34,81
273,916	38,63
274,455	42,91
274,994	35,97
275,533	37,2
276,072	43,98
276,61	43,34
277,149	36,96
277,687	37,01
278,225	41,78
278,763	40,22
279,301	42,26
279,839	38,41
280,377	35,4
280,914	39,56
281,452	53,66
281,989	45,39
282,526	47,31
283,064	42,36
283,601	44,32
284,137	45,26
284,674	40,38
285,211	36,33
285,747	42,03
286,284	44,91
286,82	40,07
287,356	39,18
287,892	38,95
288,428	39,32
288,964	41,52
289,5	43,2
290,035	33,09
290,571	42,16
291,106	41,82
291,641	47,13
292,176	43,61
292,711	44,48
293,246	41,52
293,781	42,38
294,315	34,93
294,85	38,69
295,384	44,81
295,918	36,59
296,453	37,46
296,987	36,9
297,52	41,1
298,054	38,97
298,588	47,24
299,121	35,9
299,655	39,3
300,188	41,06
300,721	44,48
301,254	42,7
301,787	44,31
302,32	37,12
302,853	39,37
303,385	39,56
303,918	43,51
304,45	38,61
304,982	44,62
305,514	41,7
306,046	31,58
306,578	35,71
307,11	30,86
307,641	45,45
308,173	31,23
308,704	44,44
309,236	39,7
309,767	38,33
310,298	31,01
310,829	48,29
311,359	41,64
311,89	41,28
312,421	40,58
312,951	36,36
313,481	40,96
314,012	39,93
314,542	34,93
315,072	39,64
315,601	36,65
316,131	31,39
316,661	44,17
317,19	33,45
317,72	38,83
318,249	36,82
318,778	39,92
319,307	36,82
319,836	41,95
320,365	41,04
320,893	37,94
321,422	41,42
321,95	41,48
322,479	43,6
323,007	37,68
323,535	35,47
324,063	47,01
324,591	33,67
325,118	47,9
325,646	41,15
326,173	47,86
326,701	37,82
327,228	36,42
327,755	41,22
328,282	38,11
328,809	35,93
329,336	38,41
329,862	41,54
330,389	37,54
330,915	41,13
331,441	35,25
331,968	37,46
332,494	32,78
333,02	35,77
333,545	33,21
334,071	38
334,597	33,11
335,122	37,79
335,648	41,76
336,173	35,97
336,698	31,51
337,223	42,32
337,748	36,14
338,272	39,27
338,797	40,78
339,322	36,21
339,846	37,89
340,37	40,66
340,894	39,04
341,419	42,28
341,942	35,23
342,466	34,81
342,99	33,85
343,514	33,44
344,037	40
344,56	36,36
345,084	31,55
345,607	34,35
346,13	37,85
346,653	37,11
347,175	35,16
347,698	36,31
348,221	30,52
348,743	37,03
349,265	35,42
349,787	35,43
350,309	35,81
350,831	35,82
351,353	37,57
351,875	32,87
352,397	40,5
352,918	30,23
353,439	36,59
353,961	28,73
354,482	30,06
355,003	32,44
355,524	30,61
356,044	27,97
356,565	37,16
357,086	30,79
357,606	28,67
358,126	30,9
358,646	30,85
359,167	30,96
359,687	34,2
360,206	25,78
360,726	24,48
361,246	28,19
361,765	27,85
362,285	25,59
362,804	26,67
363,323	23,17
363,842	34,29
364,361	30,3
364,88	34,6
365,398	28,26
365,917	27,31
366,435	30,26
366,954	25,05
367,472	21,96
367,99	26,49
368,508	26,76
369,026	27,13
369,544	26
370,061	26,89
370,579	23,83
371,096	27,37
371,613	24,04
372,131	29,23
372,648	26,71
373,165	26,17
373,681	25,22
374,198	26,39
374,715	25,52
375,231	25,44
375,747	26,45
376,264	23,48
376,78	24,72
377,296	30,06
377,812	20,47
378,327	23,56
378,843	26,29
379,359	22,75
379,874	23,36
380,389	23,11
380,905	25,2
381,42	21,8
381,935	20,67
382,449	23,38
382,964	25,7
383,479	22,73
383,993	22,36
384,508	24,47
385,022	22,29
385,536	19,91
386,05	19,65
386,564	20,46
387,078	19,58
387,592	20,21
388,105	21,14
388,619	18,98
389,132	18,25
389,645	19,27
390,158	19,95
390,671	20,13
391,184	17,53
391,697	15,66
392,21	19,9
392,722	16,15
393,235	16,04
393,747	17,45
394,259	18,36
394,771	16,91
395,283	16,4
395,795	18,48
396,307	16,96
396,818	16,79
397,33	15,47
397,841	16,54
398,353	14,97
398,864	16,05
399,375	13,51
399,886	13,76
400,397	12,98
400,907	13,91
401,418	12,73
401,928	12,76
402,439	13,43
402,949	11,8
403,459	13,72
403,969	12,01
404,479	12,24
404,989	11,7
405,498	12,15
406,008	8,73
406,517	9,9
407,027	10,32
407,536	9,33
408,045	10,01
408,554	9,55
409,063	8,96
409,572	8,46
410,08	8,95
410,589	8,51
411,097	7,89
411,606	7,37
412,114	7,48
412,622	8,08
413,13	6,58
413,638	6,48
414,145	6,73
414,653	6,49
415,16	6,76
415,668	6,47
416,175	6,38
416,682	6,05
417,189	5,92
417,696	6,06
418,203	5,62
418,71	5,07
419,216	5,48
419,723	6,14
420,229	5,92
420,735	5,4
421,242	5,53
421,748	5,69
422,254	5,24
422,759	5
423,265	5,02
423,771	5,19
424,276	5,03
424,781	5,27
425,287	4,98
425,792	4,87
426,297	5,46
426,802	4,37
427,306	5,05
427,811	4,71
428,316	4,8
428,82	4,61
429,324	4,6
429,829	5,19
430,333	4,58
430,837	4,93
431,34	4,35
431,844	4,6
432,348	4,63
432,851	4,2
433,355	4,38
433,858	4,08
434,361	4,26
434,864	4,4
435,367	3,89
435,87	4,4
436,373	4,41
436,876	4,16
437,378	4,36
437,88	4,11
438,383	4,27
438,885	4,1
439,387	4,02
439,889	4,13
440,391	4,18
440,892	4,31
441,394	4,28
441,896	4,25
442,397	4,37
442,898	4,14
443,399	4,48
443,9	4,42
444,401	4,24
444,902	4,02
445,403	4,26
445,903	4,31
446,404	4,44
446,904	4,29
447,405	4,28
447,905	4,21
448,405	4,35
448,905	4,61
449,404	4,44
449,904	4,19
450,404	4,04
450,903	4,13
451,403	4,47
451,902	4,74
452,401	4,44
452,9	4,56
453,399	4,44
453,898	4,29
454,396	4,52
454,895	4,55
455,393	4,58
455,892	4,6
456,39	4,7
456,888	4,52
457,386	4,48
457,884	4,57
458,382	4,63
458,879	4,88
459,377	4,56
459,874	4,61
460,372	4,54
460,869	4,8
461,366	4,58
461,863	4,8
462,36	4,6
462,857	4,65
463,353	4,72
463,85	4,44
464,346	4,42
464,843	4,45
465,339	4,41
465,835	4,74
466,331	4,48
466,827	4,75
467,323	4,33
467,818	4,72
468,314	4,8
468,809	4,41
469,305	4,55
469,8	4,54
470,295	4,58
470,79	4,61
471,285	4,65
471,78	4,47
472,274	4,63
472,769	4,82
473,263	4,57
473,758	4,92
474,252	4,38
474,746	4,71
475,24	4,55
475,734	4,63
476,228	4,73
476,721	4,8
477,215	4,86
477,708	4,91
478,202	4,7
478,695	4,78
479,188	4,56
479,681	4,64
480,174	4,7
480,667	4,84
481,159	4,7
481,652	4,83
482,144	4,65
482,637	4,78
483,129	4,97
483,621	4,98
484,113	4,84
484,605	4,93
485,097	4,8
485,588	5,15
486,08	4,85
486,571	4,7
487,063	4,99
487,554	5,13
488,045	5,02
488,536	4,88
489,027	5,01
489,518	5,09
490,008	5,1
490,499	4,92
490,989	5,12
491,48	5,3
491,97	5,19
492,46	5,18
492,95	5,37
493,44	5,33
493,93	5,27
494,419	5,49
494,909	5,6
495,398	5,57
495,888	5,71
496,377	5,66
496,866	5,84
497,355	5,94
497,844	5,88
498,333	6,15
498,821	5,92
499,31	6,17
499,798	6,32
500,287	6,38
500,775	6,56
501,263	6,74
501,751	6,52
502,239	6,7
502,727	7,05
503,215	7,01
503,702	7,53
504,19	7,43
504,677	7,59
505,164	7,64
505,651	7,71
506,139	7,96
506,625	8,22
507,112	8,26
507,599	8,55
508,086	8,68
508,572	8,75
509,058	9,27
509,545	9,45
510,031	9,62
510,517	9,7
511,003	9,9
511,489	10,41
511,974	10,3
512,46	10,65
512,946	10,79
513,431	10,98
513,916	11,31
514,401	11,29
514,887	11,87
515,371	12,08
515,856	12,16
516,341	12,46
516,826	12,93
517,31	12,84
517,795	13,42
518,279	13,79
518,763	13,83
519,247	14,08
519,731	14,55
520,215	14,96
520,699	15,03
521,182	15,46
521,666	15,58
522,149	16,2
522,633	16,26
523,116	16,53
523,599	16,82
524,082	16,93
524,565	17,52
525,048	17,46
525,53	17,65
526,013	18,12
526,495	18,39
526,978	18,36
527,46	19,02
527,942	18,77
528,424	19,12
528,906	19,05
529,388	19,34
529,87	19,49
530,351	19,86
530,833	19,94
531,314	20,11
531,795	20,38
532,277	20,66
532,758	20,45
533,238	20,81
533,719	21,04
534,2	20,98
534,681	20,92
535,161	21,47
535,642	21,33
536,122	21,24
536,602	21,31
537,082	21,31
537,562	21,53
538,042	21,57
538,522	21,74
539,001	21,29
539,481	21,61
539,96	21,64
540,44	21,65
540,919	21,72
541,398	21,99
541,877	22,08
542,356	22,02
542,835	22,17
543,313	21,72
543,792	22,1
544,27	22,04
544,749	22,31
545,227	22,32
545,705	22,03
546,183	22,47
546,661	22,75
547,139	22,48
547,616	22,53
548,094	22,61
548,571	22,28
549,049	22,45
549,526	22,59
550,003	22,63
550,48	22,43
550,957	22,46
551,434	22,81
551,911	22,58
552,387	22,55
552,864	22,66
553,34	22,85
553,817	22,64
554,293	22,5
554,769	22,47
555,245	22,74
555,721	22,64
556,197	22,96
556,672	22,48
557,148	22,25
557,623	22,45
558,099	22,6
558,574	22,47
559,049	22,61
559,524	22,44
559,999	22,54
560,474	22,09
560,948	22,05
561,423	22,28
561,897	22,03
562,372	22,17
562,846	21,89
563,32	22,07
563,794	21,88
564,268	21,56
564,742	21,56
565,216	21,43
565,69	21,17
566,163	21,21
566,636	21,21
567,11	20,9
567,583	20,79
568,056	20,75
568,529	20,35
569,002	20,42
569,475	20,33
569,947	19,98
570,42	19,83
570,892	19,73
571,365	19,67
571,837	19,71
572,309	19,51
572,781	19,11
573,253	19,14
573,725	18,86
574,197	18,78
574,668	18,59
575,14	18,51
575,611	18,27
576,082	18,13
576,554	17,87
577,025	18,08
577,496	17,76
577,967	17,56
578,437	17,75
578,908	17,5
579,379	17,19
579,849	17,27
580,319	17,12
580,79	16,77
581,26	17,01
581,73	16,82
582,2	16,67
582,669	16,61
583,139	16,55
583,609	16,46
584,078	16,49
584,548	16,32
585,017	16,25
585,486	15,94
585,955	16
586,424	15,8
586,893	15,82
587,362	15,87
587,83	15,69
588,299	15,56
588,767	15,7
589,236	15,54
589,704	15,8
590,172	15,57
590,64	15,17
591,108	15,19
591,576	15,02
592,043	14,94
592,511	15,13
592,978	15,1
593,446	14,98
593,913	14,93
594,38	14,75
594,847	14,79
595,314	14,77
595,781	14,68
596,248	14,6
596,715	14,81
597,181	14,55
597,647	14,75
598,114	14,59
598,58	14,51
599,046	14,55
599,512	14,45
599,978	14,41
600,444	14,39
600,91	14,32
601,375	14,35
601,841	14,33
602,306	14,32
602,771	14,26
603,236	14,22
603,702	14,26
604,167	14,2
604,631	14,05
605,096	14,15
605,561	13,89
606,025	13,89
606,49	13,79
606,954	13,67
607,418	13,84
607,882	13,66
608,347	13,59
608,81	13,38
609,274	13,42
609,738	13,32
610,202	13,27
610,665	13,09
611,128	13,1
611,592	12,94
612,055	12,77
612,518	12,91
612,981	12,8
613,444	12,51
613,907	12,66
614,369	12,45
614,832	12,47
615,294	12,34
615,757	12,08
616,219	12,19
616,681	12,04
617,143	11,87
617,605	11,98
618,067	11,74
618,529	11,82
618,99	11,81
619,452	11,54
619,913	11,49
620,375	11,48
620,836	11,46
621,297	11,34
621,758	11,31
622,219	11,28
622,68	11,34
623,14	11,21
623,601	11,25
624,061	11,15
624,522	11,02
624,982	11,21
625,442	11,05
625,902	10,97
626,362	11,09
626,822	11,02
627,282	10,97
627,742	10,9
628,201	10,94
628,661	10,85
629,12	10,95
629,579	10,93
630,038	10,81
630,497	10,77
630,956	10,93
631,415	10,89
631,874	10,78
632,332	10,58
632,791	10,73
633,249	10,71
633,708	10,54
634,166	10,63
634,624	10,55
635,082	10,43
635,54	10,45
635,998	10,38
636,455	10,28
636,913	10,21
637,37	10,05
637,828	9,99
638,285	9,96
638,742	9,82
639,199	9,78
639,656	9,79
640,113	9,58
640,57	9,55
641,027	9,35
641,483	9,29
641,94	9,09
642,396	9,15
642,852	8,93
643,309	8,86
643,765	8,48
644,221	8,49
644,676	8,44
645,132	8,36
645,588	8,28
646,043	8,07
646,499	7,94
646,954	7,84
647,409	7,77
647,864	7,81
648,319	7,61
648,774	7,4
649,229	7,48
649,684	7,57
650,139	7,23
650,593	7,27
651,047	7,18
651,502	7,3
651,956	7,12
652,41	7,09
652,864	7,25
653,318	7,06
653,772	6,89
654,225	6,99
654,679	6,93
655,133	6,87
655,586	6,85
656,039	6,71
656,492	6,66
656,946	6,66
657,399	6,64
657,851	6,55
658,304	6,45
658,757	6,47
659,209	6,36
659,662	6,26
660,114	6,18
660,567	6,05
661,019	6,05
661,471	5,88
661,923	5,86
662,375	5,85
662,826	5,64
663,278	5,57
663,73	5,64
664,181	5,59
664,632	5,4
665,084	5,49
665,535	5,33
665,986	5,33
666,437	5,39
666,888	5,22
667,338	5,24
667,789	5,35
668,24	5,27
668,69	5,2
669,14	5,38
669,591	5,22
670,041	5,25
670,491	5,21
670,941	5,28
671,391	5,42
671,84	5,27
672,29	5,48
672,74	5,41
673,189	5,51
673,638	5,58
674,088	5,59
674,537	5,7
674,986	5,71
675,435	5,8
675,883	5,92
676,332	5,97
676,781	5,84
677,229	6,04
677,678	6,22
678,126	6,22
678,574	6,36
679,022	6,47
679,47	6,63
679,918	6,58
680,366	6,68
680,814	6,78
681,261	6,93
681,709	7,07
682,156	7,17
682,604	7,32
683,051	7,45
683,498	7,45
683,945	7,6
684,392	7,68
684,839	7,89
685,286	7,98
685,732	8,19
686,179	8,3
686,625	8,43
687,071	8,57
687,518	8,84
687,964	9,03
688,41	9,23
688,856	9,49
689,301	9,81
689,747	10,1
690,193	10,26
690,638	10,67
691,084	11,05
691,529	11,42
691,974	11,85
692,419	12,16
692,864	12,69
693,309	12,99
693,754	13,27
694,199	14,11
694,643	14,41
695,088	14,93
695,532	15,37
695,977	15,84
696,421	16,34
696,865	16,83
697,309	17,48
697,753	17,93
698,197	18,31
698,64	18,81
699,084	19,23
699,527	19,82
699,971	20,14
700,414	20,84
700,857	21,01
701,3	21,71
701,743	21,9
702,186	22,16
702,629	22,78
703,072	23,35
703,515	23,56
703,957	24,19
704,399	24,5
704,842	24,69
705,284	25,1
705,726	25,48
706,168	26,06
706,61	26,08
707,052	26,74
707,494	26,95
707,935	27,36
708,377	27,82
708,818	28,08
709,26	28,2
709,701	28,49
710,142	28,83
710,583	29,2
711,024	29,55
711,465	29,55
711,905	30,07
712,346	30
712,787	30,62
713,227	30,88
713,667	31,12
714,108	31,25
714,548	31,55
714,988	32,01
715,428	31,91
715,868	32,18
716,307	32,54
716,747	32,98
717,186	32,97
717,626	33,36
718,065	33,09
718,504	33,4
718,944	33,52
719,383	33,7
719,822	33,9
720,261	34,41
720,699	34,38
721,138	34,77
721,576	35,2
722,015	34,92
722,453	34,93
722,892	35,64
723,33	35,57
723,768	35,56
724,206	35,93
724,644	35,95
725,081	36,19
725,519	36,37
725,957	36,24
726,394	36,62
726,832	36,65
727,269	36,46
727,706	36,62
728,143	37,07
728,58	37,01
729,017	36,96
729,454	37,1
729,89	36,89
730,327	37,34
730,764	37,22
731,2	37,65
731,636	37,37
732,072	37,51
732,509	37,71
732,945	37,75
733,38	37,8
733,816	37,9
734,252	37,86
734,688	37,94
735,123	37,8
735,559	37,9
735,994	38,17
736,429	38,16
736,864	38,05
737,299	37,95
737,734	38,17
738,169	38,43
738,604	38,16
739,038	38,35
739,473	38,56
739,907	38,25
740,342	38,19
740,776	38,3
741,21	38,17
741,644	38,45
742,078	38,12
742,512	38,38
742,946	38,33
743,379	38,42
743,813	38,1
744,246	38,21
744,68	38,13
745,113	38,03
745,546	38,25
745,979	38,12
746,412	38,34
746,845	38,33
747,278	37,95
747,711	38,16
748,143	37,99
748,576	38,37
749,008	38,05
749,441	38,28
749,873	37,86
750,305	37,98
750,737	37,81
751,169	37,88
751,601	37,86
752,032	37,63
752,464	37,95
752,896	37,76
753,327	37,96
753,758	37,99
754,19	37,79
754,621	37,54
755,052	37,51
755,483	37,82
755,914	37,71
756,344	37,71
756,775	37,55
757,206	37,55
757,636	37,44
758,066	37,59
758,497	37,62
758,927	37,46
759,357	37,49
759,787	37,52
760,217	37,27
760,647	37,12
761,076	37,38
761,506	37,42
761,935	37,17
762,365	37,08
762,794	37,34
763,223	37,05
763,653	37,38
764,082	37,05
764,51	37,23
764,939	36,81
765,368	37,11
765,797	36,9
766,225	36,96
766,654	37,1
767,082	36,92
767,51	36,91
767,938	36,8
768,367	36,62
768,795	36,67
769,222	36,76
769,65	36,73
770,078	36,68
770,505	36,56
770,933	36,57
771,36	36,51
771,788	36,88
772,215	36,67
772,642	36,74
773,069	36,74
773,496	36,51
773,923	36,63
774,349	36,33
774,776	36,38
775,203	36,17
775,629	36,53
776,055	36,37
776,482	36,65
776,908	36,34
777,334	36,6
777,76	36,59
778,186	36,21
778,611	36,44
779,037	36,59
779,463	36,34
779,888	36,49
780,314	36,49
780,739	36,25
781,164	36,1
781,589	36,4
782,014	36,38
782,439	36,14
782,864	36,25
783,289	36,19
783,713	36,17
784,138	36,17
784,562	36,28
784,987	36,1
785,411	36,15
785,835	36,15
786,259	36,06
786,683	36,03
787,107	36,24
787,531	35,98
787,954	36,16
788,378	35,92
788,802	36,08
789,225	36,11
789,648	36,26
790,071	36,33
790,495	36,15
790,918	35,93
791,34	36,1
791,763	35,87
792,186	35,98
792,609	35,89
793,031	35,95
793,454	36,02
793,876	35,98
794,298	36,04
794,721	36,03
795,143	35,8
795,565	35,82
795,986	36,07
796,408	36,21
796,83	35,78
797,252	35,81
797,673	35,93
798,094	35,99
798,516	36,14
798,937	35,75
799,358	35,75
799,779	35,76
800,2	36,01
800,621	35,74
801,042	36,03
801,462	35,77
801,883	36,05
802,303	35,7
802,724	35,73
803,144	35,87
803,564	35,89
803,984	35,83
804,404	35,74
804,824	35,79
805,244	35,81
805,664	35,84
806,084	35,73
806,503	35,87
806,923	35,87
807,342	35,86
807,761	35,52
808,18	35,79
808,599	35,77
809,018	35,83
809,437	35,56
809,856	35,87
810,275	35,72
810,693	35,67
811,112	35,86
811,53	35,86
811,949	35,74
812,367	35,74
812,785	35,8
813,203	35,88
813,621	35,96
814,039	35,86
814,457	35,76
814,874	35,7
815,292	35,78
815,709	35,76
816,127	35,58
816,544	35,69
816,961	35,94
817,378	35,87
817,795	35,56
818,212	35,72
818,629	35,57
819,046	35,83
819,462	35,75
819,879	35,7
820,295	35,66
820,712	35,75
821,128	35,77
821,544	35,31
821,96	35,56
822,376	35,63
822,792	35,7
823,208	35,52
823,624	35,61
824,039	35,52
824,455	35,77
824,87	35,59
825,286	35,62
825,701	35,52
826,116	35,7
826,531	35,37
826,946	35,82
827,361	35,57
827,776	35,68
828,19	35,54
828,605	35,67
829,02	35,66
829,434	35,57
829,848	35,6
830,263	35,43
830,677	35,42
831,091	35,81
831,505	35,68
831,919	35,51
832,332	35,7
832,746	35,55
833,16	35,58
833,573	35,43
833,987	35,52
834,4	35,41
834,813	35,56
835,226	35,44
835,639	35,52
836,052	35,63
836,465	35,56
836,878	35,39
837,29	35,37
837,703	35,4
838,116	35,75
838,528	35,39
838,94	35,48
839,352	35,67
839,765	35,27
840,177	35,5
840,589	35,45
841	35,32
841,412	35,26
841,824	35,35
842,235	35,6
842,647	35,48
843,058	35,23
843,47	35,34
843,881	35,22
844,292	35,21
844,703	35,32
845,114	35,2
845,525	35,23
845,935	35,3
846,346	35,29
846,757	35,4
847,167	35,62
847,577	35,28
847,988	35,44
848,398	35,33
848,808	35,3
849,218	35,59
849,628	35,38
850,038	35,32
850,448	35,18
850,857	35,48
851,267	35,29
851,676	35,4
852,086	35,08
852,495	35,14
852,904	35,25
853,313	35,1
853,722	35,29
854,131	35,34
854,54	35,49
854,949	35,29
855,357	35,4
855,766	35,29
856,174	35,12
856,583	35,44
856,991	35,28
857,399	35,14
857,807	35,35
858,215	35,49
858,623	35,16
859,031	35,31
859,439	35,24
859,846	35,29
860,254	35
860,661	35,41
861,069	35,19
861,476	35,09
861,883	35,18
862,29	35,4
862,697	35,17
863,104	35,29
863,511	34,98
863,918	35,12
864,325	35,23
864,731	35,25
865,138	35,21
865,544	35,46
865,95	35,15
866,357	35,17
866,763	35,37
867,169	34,83
867,575	35,37
867,98	35,06
868,386	35,35
868,792	35,26
869,197	35,42
869,603	34,84
870,008	35,04
870,414	35,15
870,819	35,29
871,224	35,08
871,629	35,2
872,034	35,23
872,439	35,26
872,844	35,3
873,248	35,07
873,653	34,96
874,057	35,22
874,462	34,9
874,866	35,17
875,27	35,28
875,674	35,07
876,078	35,24
876,482	35,33
876,886	34,99
877,29	35,38
877,694	35,29
878,097	35,3
878,501	35,22
878,904	35,51
879,308	35,03
879,711	35,08
880,114	35,11
880,517	35,2
880,92	34,81
881,323	35,11
881,726	35,01
882,128	35,23
882,531	35,14
882,934	35,36
883,336	35,03
883,738	35,2
884,141	35,09
884,543	35,25
884,945	35,13
885,347	35,07
885,749	35,09
886,151	35,08
886,552	35,25
886,954	35,08
887,355	35,23
887,757	35,08
888,158	35,03
888,56	35,32
888,961	35,32
889,362	35,33
889,763	35,09
890,164	35,33
890,565	34,97
890,965	35,03
891,366	35,02
891,767	34,98
892,167	35,03
892,567	34,97
892,968	35,19
893,368	34,88
893,768	35,26
894,168	35,1
894,568	34,98
894,968	35,06
895,368	35,02
895,767	35,41
896,167	35,02
896,566	35,13
896,966	34,82
897,365	34,98
897,764	35,02
898,164	34,96
898,563	35,21
898,962	35,1
899,361	35,03
899,759	34,96
900,158	35,08
900,557	35,14
900,955	34,99
901,354	35,2
901,752	34,97
902,15	35,22
902,548	35,12
902,947	35,05
903,345	35,22
903,742	35,05
904,14	35,27
904,538	35,12
904,936	34,94
905,333	35,24
905,731	35,42
906,128	35,3
906,525	35,04
906,923	35,24
907,32	34,9
907,717	35,07
908,114	35,17
908,511	35,05
908,907	35,02
909,304	34,93
909,701	34,93
910,097	35,2
910,494	34,96
910,89	35,08
911,286	35,22
911,682	35,03
912,078	35,02
912,474	35,03
912,87	35,11
913,266	34,9
913,662	34,95
914,058	34,81
914,453	34,76
914,849	35,22
915,244	35
915,639	35,14
916,034	34,91
916,43	35,02
916,825	34,82
917,22	35,09
917,614	35,18
918,009	34,92
918,404	35,08
918,798	35
919,193	35,2
919,587	34,98
919,982	34,62
920,376	34,79
920,77	35
921,164	35,3
921,558	35,33
921,952	35,08
922,346	34,76
922,74	35,16
923,133	35,24
923,527	34,78
923,92	35,09
924,314	34,99
924,707	35,2
925,1	35,15
925,493	35,09
925,886	35,19
926,279	35,03
926,672	34,91
927,065	34,81
927,457	35,12
927,85	35,13
928,243	34,9
928,635	34,94
929,027	35
929,42	34,95
929,812	35,02
930,204	35,24
930,596	34,97
930,988	34,76
931,379	34,57
931,771	34,8
932,163	35,07
932,554	34,7
932,946	34,64
933,337	34,84
933,729	35,34
934,12	34,77
934,511	34,87
934,902	34,78
935,293	34,91
935,684	34,87
936,075	34,65
936,465	34,67
936,856	34,21
937,246	34,74
937,637	34,81
938,027	34,61
938,417	34,83
938,808	34,74
939,198	34,67
939,588	34,62
939,978	34,51
940,368	34,6
940,757	34,93
941,147	35,29
941,537	34,85
941,926	34,53
942,315	34,5
942,705	34,6
943,094	34,82
943,483	34,89
943,872	34,24
944,261	34,77
944,65	34,15
945,039	34,6
945,428	35,32
945,816	33,76
946,205	35,26
946,593	34,85
946,982	35,31
947,37	34,57
947,758	34,56
948,146	34,49
948,534	34,53
948,922	34,5
949,31	34,97
949,698	34,76
950,086	34,32
950,473	34,66
950,861	34,05
951,248	34,71
951,636	34,37
952,023	34,21
952,41	33,99
952,797	34,49
953,184	34,01
953,571	33,95
953,958	34,19
954,345	34,19
954,731	34,17
955,118	34,54
955,505	33,78
955,891	34,16
956,277	34,45
956,664	34,23
957,05	33,96
957,436	34,1
957,822	34,13
958,208	34,09
958,594	33,89
958,979	34,36
959,365	34,22
959,751	33,66
960,136	34,27
960,522	33,78
960,907	34,1
961,292	34,12
961,677	34,03
962,062	34,03
962,447	34,06
962,832	34,34
963,217	34,35
963,602	34,18
963,986	34,28
964,371	33,37
964,756	33,76
965,14	34,19
965,524	33,79
965,908	33,73
966,293	33,99
966,677	34,23
967,061	34,41
967,445	33,79
967,828	33,51
968,212	34,32
968,596	34,13
968,979	33,81
969,363	33,96
969,746	33,78
970,129	33,64
970,513	34,08
970,896	34,21
971,279	34,01
971,662	33,42
972,045	34,3
972,428	34,03
972,81	33,97
973,193	33,88
973,575	34,02
973,958	33,59
974,34	34,27
974,723	34,38
975,105	34,02
975,487	34,14
975,869	33,85
976,251	33,99
976,633	34,69
977,015	34,02
977,396	34,28
977,778	34,25
978,16	34,01
978,541	34,31
978,922	34,36
979,304	33,9
979,685	34,59
980,066	34,41
980,447	34,18
980,828	33,66
981,209	34,19
981,59	33,72
981,97	34
982,351	34,2
982,732	34,43
983,112	34,22
983,493	34,02
983,873	34,5
984,253	34,14
984,633	34,23
985,013	34,37
985,393	34,44
985,773	33,91
986,153	34,51
986,533	34,32
986,912	34,44
987,292	34
987,671	34,1
988,051	33,82
988,43	34,2
988,809	34,29
989,188	34,32
989,567	34,58
989,946	34,39
990,325	34,21
990,704	34,22
991,083	34,04
991,461	34,65
991,84	34,55
992,218	34,38
992,597	33,9
992,975	34,65
993,353	33,92
993,732	34,28
994,11	34,44
994,488	34,11
994,866	34,31
995,243	34,29
995,621	34,33
995,999	34,23
996,376	34,56
996,754	34,59
997,131	34,82
997,509	34,57
997,886	34,01
998,263	34,51
998,64	33,93
999,017	34,58
999,394	34,31
999,771	33,97
1000,148	33,88
1000,524	35
1000,901	34,41
1001,277	34,37
1001,654	34,57
1002,03	34,3
1002,406	34,21
1002,783	34,24
1003,159	34,59
1003,535	34,59
1003,911	34,18
1004,286	33,86
1004,662	34,3
1005,038	34,3
1005,414	34,9
1005,789	34,24
1006,164	34,67
1006,54	34,49
1006,915	34,47
1007,29	34,4
1007,665	34,39
1008,04	34,29
1008,415	34,78
1008,79	34,6
1009,165	34,81
1009,54	34,37
1009,914	34,61
1010,289	34,47
1010,663	34,72
1011,038	34,52
1011,412	34,3
1011,786	34,39
1012,16	34,35
1012,535	34,35
1012,909	34,57
1013,282	34,7
1013,656	34,35
1014,03	34,68
1014,404	34,45
1014,777	34,33
1015,151	34,13
1015,524	34,63
1015,897	34,7
1016,271	35
1016,644	34,62
1017,017	34,46
1017,39	34,54
1017,763	34,5
1018,136	34,88
1018,508	35,27
1018,881	34,66
1019,254	34,63
1019,626	34,63
1019,999	34,75
1020,371	34,23
1020,743	34,7
1021,116	34,59
1021,488	34,59
1021,86	34,61
1022,232	34,73
1022,604	34,7
1022,975	34,85
1023,347	34,87
1023,719	34,93
1024,09	34,18
1024,462	34,73
1024,833	34,86
1025,204	34,67
1025,576	34,85
1025,947	34,89
1026,318	34,29
1026,689	35,08
1027,06	34,82
1027,431	34,48
1027,801	34,83
1028,172	34,35
1028,543	35,19
1028,913	34,77
1029,284	34,54
1029,654	34,9
1030,024	34,99
1030,394	34,71
1030,764	35,45
1031,135	34,96
1031,504	33,73
1031,874	34,65
1032,244	35,03
1032,614	34,92
1032,983	34,86
1033,353	34,54
1033,722	34,99
1034,092	34,51
1034,461	34,12
1034,83	34,47
1035,2	34,81
1035,569	35,04
1035,938	35,24
1036,307	34,59
1036,675	35,01
1037,044	35,53
1037,413	34,33
1037,781	35,09
1038,15	34,86
1038,518	35,25
1038,887	35,09
1039,255	35,16
1039,623	35,26
1039,991	35,11
1040,359	34,91
1040,727	34,45
1041,095	34,5
1041,463	35,41
1041,831	34,83
1042,198	34,64
1042,566	35,26
1042,933	34,89
1043,301	35,45
1043,668	34,4
1044,035	34,62
1044,402	34,78
1044,77	35,8
1045,137	35
1045,503	35,02
1045,87	35,66
1046,237	34,19
1046,604	34,65
1046,97	35,18
1047,337	36,19
1047,703	34,7
1048,07	35,08
1048,436	35,4
1048,802	34,82
1049,168	35,19
1049,534	35,26
1049,9	34,62
1050,266	35,05
1050,632	34,99
1050,998	34,87
1051,364	34,98
1051,729	34,74
1052,095	35,15
1052,46	34,69
1052,825	35,57
1053,191	35,5
1053,556	34,43
1053,921	34,93
1054,286	35,56
1054,651	35,39
1055,016	35,85
1055,381	34,52
1055,745	34,46
1056,11	35,77
1056,475	35,28
1056,839	35,84
1057,203	35,79
1057,568	34,96
1057,932	35,4
1058,296	34,5
1058,66	34,55
1059,024	35,53
1059,388	35,4
1059,752	35
1060,116	35,58
1060,48	35,34
1060,843	35,01
1061,207	35,43
1061,57	35,81
1061,934	35,03
1062,297	35,59
1062,66	35,53
1063,023	35,4
1063,386	34,75
1063,749	34,5
1064,112	34,83
1064,475	35,47
1064,838	35,44
1065,201	35,49
1065,563	35,1
1065,926	35,2
1066,288	35,36
1066,651	34,64
1067,013	34,68
1067,375	35,93
1067,737	34,44
1068,099	36,34
1068,461	34,97
1068,823	35,32
1069,185	34,7
1069,547	35,15
1069,909	35,85
1070,27	35,25
1070,632	33,58
1070,993	34,77
1071,355	35,03
1071,716	35,78
1072,077	36,02
1072,438	34,66
1072,799	35,33
1073,16	34,78
1073,521	35,75
1073,882	35,59
1074,243	35,17
1074,603	35,85
1074,964	33,94
1075,325	35,82
1075,685	35,11
1076,045	35,11
1076,406	35,98
1076,766	36,09
1077,126	35,78
1077,486	34,82
1077,846	34,71
1078,206	34,75
1078,566	35,65
1078,925	35,57
1079,285	35,65
1079,645	36,41
1080,004	35,32
1080,364	35,04
1080,723	35,76
1081,082	35,98
1081,442	34,58
1081,801	35,95
1082,16	36,06
1082,519	36,67
1082,878	35,71
1083,237	33,64
1083,595	36,6
1083,954	35,31
1084,313	35,54
1084,671	36,55
1085,03	35,93
1085,388	34,88
1085,746	37,17
1086,104	33,76
1086,463	36
1086,821	35,53
1087,179	35,76
1087,537	36,42
1087,894	35,93
1088,252	34,22
1088,61	36,02
1088,967	36,23
1089,325	35,47
1089,682	34,18
1090,04	36,17
1090,397	34,86
1090,754	34,63
1091,111	34,28
1091,469	33,79
1091,826	35,66
1092,182	35,51
1092,539	35,06
1092,896	36,12
1093,253	35,22
1093,609	35,87
1093,966	34,34
1094,322	36,27
1094,679	35,71
1095,035	34,5
1095,391	35,41
1095,748	37
1096,104	35,4
1096,46	36,18
1096,816	35,13
1097,171	35,87
1097,527	33,79
1097,883	35,86
1098,239	36,39
1098,594	35,91
1098,95	35,99
1099,305	34,55
1099,66	34,89
1100,016	36,32
1100,371	36,45
1100,726	35,54
1101,081	35
1101,436	35,13
1101,791	35,58
1102,146	35,23
1102,5	35,79
1102,855	37,97
1103,21	36,69
1103,564	34,82
1103,918	36,75
1104,273	34,6
1104,627	36,3
1104,981	35,85
1105,335	36,05
1105,69	35,15
1106,043	37,09
1106,397	34,83
1106,751	36,37
1107,105	38,47
1107,459	35,44
1107,812	35,93
1108,166	35,61
1108,519	34,61
1108,873	35,84
1109,226	35,53
1109,579	37,04
1109,932	36,39
1110,285	35,99
1110,638	36,36
1110,991	39,25
1111,344	34,87
1111,697	35,32
1112,05	36,91
1112,402	35,85
1112,755	36,62
1113,107	35,29
1113,46	35,27
1113,812	35,48
1114,164	36,34
1114,517	38,14
1114,869	49,57
1115,221	55,65
1115,573	34,91
1115,924	35,04
